#           time (fs)    |     mu_x (e.angstrom)   |     mu_y (e.angstrom)   |     mu_z (e.angstrom)   |
        0.000000000000000       -0.000000000000000       -0.000000000000000        0.000000000000000
        0.002418884326505       -0.000000002150912        0.000000007057054        0.000043172288849
        0.004837768653010       -0.000000008604105        0.000000028228635        0.000086361778388
        0.007256652979515       -0.000000019255821        0.000000063175949        0.000128864150752
        0.009675537306020       -0.000000034140656        0.000000112009805        0.000171379038239
        0.012094421632525       -0.000000052913821        0.000000173602788        0.000212516282084
        0.014513305959030       -0.000000075779539        0.000000248620074        0.000253656818827
        0.016932190285535       -0.000000102022640        0.000000334721243        0.000292746946620
        0.019351074612040       -0.000000132146513        0.000000433550845        0.000331826903052
        0.021769958938545       -0.000000164947851        0.000000541169123        0.000368212465152
        0.024188843265050       -0.000000201348474        0.000000660591283        0.000404570596534
        0.026607727591555       -0.000000239554758        0.000000785942999        0.000437629751709
        0.029026611918060       -0.000000281011999        0.000000921954761        0.000470641010113
        0.031445496244565       -0.000000323253255        0.000001060545362        0.000499798168330
        0.033864380571070       -0.000000368334537        0.000001208446801        0.000528884472628
        0.036283264897575       -0.000000413054887        0.000001355171826        0.000553620330308
        0.038702149224080       -0.000000460147330        0.000001509671476        0.000578260711296
        0.041121033550585       -0.000000505641066        0.000001658934900        0.000598121507414
        0.043539917877090       -0.000000552988878        0.000001814272411        0.000617861453655
        0.045958802203595       -0.000000597441128        0.000001960120036        0.000632467286001
        0.048377686530100       -0.000000643187513        0.000002110203647        0.000646927127395
        0.050796570856605       -0.000000684718680        0.000002246468878        0.000655979182014
        0.053215455183110       -0.000000726951415        0.000002385024925        0.000664861362238
        0.055634339509615       -0.000000763664476        0.000002505483926        0.000668147925270
        0.058053223836120       -0.000000800464213        0.000002626215299        0.000671243030962
        0.060472108162625       -0.000000830493885        0.000002724748281        0.000668644170556
        0.062890992489130       -0.000000859984167        0.000002821498493        0.000665835604064
        0.065309876815635       -0.000000881546882        0.000002892253672        0.000657326430454
        0.067728761142140       -0.000000901944780        0.000002959172990        0.000648593633971
        0.070147645468645       -0.000000913388387        0.000002996729643        0.000634246067873
        0.072566529795150       -0.000000923054656        0.000003028439642        0.000619666229397
        0.074985414121655       -0.000000922906731        0.000003027966615        0.000599649232234
        0.077404298448160       -0.000000920394351        0.000003019719446        0.000579397427701
        0.079823182774665       -0.000000907408016        0.000002977125494        0.000553975671482
        0.082242067101170       -0.000000891508001        0.000002924954203        0.000528323422269
        0.084660951427675       -0.000000864704173        0.000002837026628        0.000497854401762
        0.087079835754180       -0.000000834487562        0.000002737882948        0.000467166652123
        0.089498720080685       -0.000000793192604        0.000002602411168        0.000432096266947
        0.091917604407190       -0.000000748047603        0.000002454287413        0.000396826811395
        0.094336488733695       -0.000000691925431        0.000002270168330        0.000357683470413
        0.096755373060200       -0.000000631588751        0.000002072200245        0.000318368886283
        0.099174257386705       -0.000000560666528        0.000001839522582        0.000275756210723
        0.101593141713210       -0.000000485248060        0.000001592070338        0.000233008375584
        0.104012026039715       -0.000000399934730        0.000001312175481        0.000187596600413
        0.106430910366220       -0.000000309934824        0.000001016880390        0.000142093897437
        0.108849794692725       -0.000000211031865        0.000000692397696        0.000094610092115
        0.111268679019230       -0.000000107350595        0.000000352212646        0.000047087428399
        0.113687563345735        0.000000003945485       -0.000000012932359       -0.000001695321941
        0.116106447672240        0.000000120007508       -0.000000393740243       -0.000050457538997
        0.118525331998745        0.000000242111259       -0.000000794345822       -0.000099731833109
        0.120944216325250        0.000000368860847       -0.000001210221274       -0.000148919598326
        0.123363100651755        0.000000499812701       -0.000001639858119       -0.000197856124876
        0.125781984978260        0.000000635180928       -0.000002084013000       -0.000246634438198
        0.128200869304765        0.000000772670739       -0.000002535101490       -0.000294394901153
        0.130619753631270        0.000000914238625       -0.000002999599063       -0.000341920879608
        0.133038637957775        0.000001055637752       -0.000003463514526       -0.000387671245956
        0.135457522284280        0.000001200670552       -0.000003939381989       -0.000433107543510
        0.137876406610785        0.000001343072094       -0.000004406586758       -0.000476031409288
        0.140295290937290        0.000001488561801       -0.000004883954704       -0.000518559736633
        0.142714175263795        0.000001628828472       -0.000005344155197       -0.000557871603435
        0.145133059590300        0.000001771543936       -0.000005812422094       -0.000596706136204
        0.147551943916805        0.000001906362852       -0.000006254748613       -0.000631664389736
        0.149970828243310        0.000002042906787       -0.000006702767844       -0.000666064853356
        0.152389712569815        0.000002168850331       -0.000007115974263       -0.000695984238220
        0.154808596896320        0.000002295722288       -0.000007532260767       -0.000725268460634
        0.157227481222825        0.000002409314028       -0.000007904940832       -0.000749531851360
        0.159646365549330        0.000002522978302       -0.000008277893896       -0.000773087581150
        0.162065249875835        0.000002620762847       -0.000008598710415       -0.000791156858483
        0.164484134202340        0.000002717720136       -0.000008916848790       -0.000808452655405
        0.166903018528845        0.000002796335688       -0.000009174771668       -0.000819878508834
        0.169321902855350        0.000002873197231       -0.000009426976788       -0.000830473526316
        0.171740787181855        0.000002929449512       -0.000009611525549       -0.000834904018656
        0.174159671508360        0.000002983012333       -0.000009787288400       -0.000838456513270
        0.176578555834865        0.000003013948485       -0.000009888774642       -0.000835644260577
        0.178997440161370        0.000003041270330       -0.000009978441591       -0.000831918681515
        0.181416324487875        0.000003044251369       -0.000009988206683       -0.000821726521468
        0.183835208814380        0.000003042723862       -0.000009983219485       -0.000810599053576
        0.186254093140885        0.000003015494243       -0.000009893862776       -0.000793004097345
        0.188672977467390        0.000002982912795       -0.000009786987928       -0.000774466553810
        0.191091861793895        0.000002923665640       -0.000009592580760       -0.000749562540129
        0.193510746120400        0.000002858294661       -0.000009378123450       -0.000723724525215
        0.195929630446905        0.000002765731275       -0.000009074404416       -0.000691722420465
        0.198348514773410        0.000002666363274       -0.000008748402437       -0.000658811708412
        0.200767399099915        0.000002539745607       -0.000008332949526       -0.000620038522618
        0.203186283426420        0.000002405752854       -0.000007893342784       -0.000580399625503
        0.205605167752925        0.000002244947682       -0.000007365718358       -0.000535295440915
        0.208024052079430        0.000002076325182       -0.000006812489915       -0.000489386365599
        0.210442936405935        0.000001881838878       -0.000006174354829       -0.000438499601519
        0.212861820732440        0.000001679237557       -0.000005509639816       -0.000386886823277
        0.215280705058945        0.000001452240478       -0.000004764833485       -0.000330867787609
        0.217699589385450        0.000001216989603       -0.000003992992718       -0.000274219495327
        0.220118473711955        0.000000959329269       -0.000003147576405       -0.000213812299576
        0.222537358038460        0.000000693447309       -0.000002275232068       -0.000152889994009
        0.224956242364965        0.000000407649730       -0.000001337493291       -0.000088922933742
        0.227375126691470        0.000000113843034       -0.000000373524669       -0.000024571485938
        0.229794011017975       -0.000000196898260        0.000000646058746        0.000042053987383
        0.232212895344480       -0.000000515249364        0.000001690560858        0.000108917686287
        0.234631779670985       -0.000000847096840        0.000002779397885        0.000177239253955
        0.237050663997490       -0.000001185964748        0.000003891218748        0.000245638897963
        0.239469548323995       -0.000001534472949        0.000005034723531        0.000314646754919
        0.241888432650500       -0.000001889222251        0.000006198653947        0.000383560309674
        0.244307316977005       -0.000002249386253        0.000007380404780        0.000452211451592
        0.246726201303510       -0.000002614825728        0.000008579411698        0.000520585730624
        0.249145085630015       -0.000002981141558        0.000009781349271        0.000587818946037
        0.251563969956520       -0.000003351588218        0.000010996785950        0.000654584870255
        0.253982854283025       -0.000003718124588        0.000012199448752        0.000719336224307
        0.256401738609530       -0.000004087479080        0.000013411302201        0.000783424546189
        0.258820622936035       -0.000004447959594        0.000014594096293        0.000844643133432
        0.261239507262540       -0.000004809792042        0.000015781268973        0.000905000398493
        0.263658391589045       -0.000005157686812        0.000016922768660        0.000961664136192
        0.266077275915550       -0.000005505331974        0.000018063390775        0.001017268648747
        0.268496160242055       -0.000005833957404        0.000019141666060        0.001068399879509
        0.270915044568560       -0.000006160617830        0.000020213434097        0.001118277437578
        0.273333928895065       -0.000006463243132        0.000021206400250        0.001162958110884
        0.275752813221570       -0.000006762098842        0.000022186936898        0.001206197276367
        0.278171697548075       -0.000007032057717        0.000023072720936        0.001243583482670
        0.280590581874580       -0.000007296380742        0.000023939950959        0.001279350157628
        0.283009466201085       -0.000007527186501        0.000024697269422        0.001308685796145
        0.285428350527590       -0.000007750458523        0.000025429805683        0.001336236884151
        0.287847234854095       -0.000007935920841        0.000026038347715        0.001356866256125
        0.290266119180600       -0.000008111952051        0.000026615881170        0.001375562199001
        0.292685003507105       -0.000008246293438        0.000027056690690        0.001386941331994
        0.295103887833610       -0.000008369340666        0.000027460377954        0.001396257326779
        0.297522772160115       -0.000008447310722        0.000027716228504        0.001397963852183
        0.299941656486620       -0.000008512192830        0.000027929070452        0.001397499570605
        0.302360540813125       -0.000008529178312        0.000027984826279        0.001389240995908
        0.304779425139630       -0.000008531386862        0.000027992031084        0.001378728648743
        0.307198309466135       -0.000008483515602        0.000027834988049        0.001360348887794
        0.309617193792640       -0.000008419318799        0.000027624312172        0.001339659499019
        0.312036078119145       -0.000008303555577        0.000027244512240        0.001311143547354
        0.314454962445650       -0.000008170093569        0.000026806573021        0.001280291327590
        0.316873846772155       -0.000007984326104        0.000026197086339        0.001241767995468
        0.319292731098660       -0.000007779695781        0.000025525640185        0.001200912730555
        0.321711615425165       -0.000007522809132        0.000024682809115        0.001152655373288
        0.324130499751670       -0.000007246136725        0.000023774989617        0.001102102771519
        0.326549384078175       -0.000006918074515        0.000022698629577        0.001044527984683
        0.328968268404680       -0.000006569574403        0.000021555140437        0.000984727954926
        0.331387152731185       -0.000006171385468        0.000020248692928        0.000918392230692
        0.333806037057690       -0.000005752403818        0.000018873951122        0.000849935092825
        0.336224921384195       -0.000005286273071        0.000017344584991        0.000775529462337
        0.338643805710700       -0.000004799315127        0.000015746810311        0.000699140120784
        0.341062690037205       -0.000004268577645        0.000014005467998        0.000617482836247
        0.343481574363710       -0.000003717317708        0.000012196715842        0.000534012976557
        0.345900458690215       -0.000003126455300        0.000010258102171        0.000446040314657
        0.348319343016720       -0.000002515728707        0.000008254237282        0.000356458711449
        0.350738227343225       -0.000001870348474        0.000006136749178        0.000263214006760
        0.353157111669730       -0.000001206125140        0.000003957358909        0.000168595058691
        0.355575995996235       -0.000000512919806        0.000001682955330        0.000071216101317
        0.357994880322740        0.000000197740822       -0.000000648798066       -0.000027273265445
        0.360413764649245        0.000000931050736       -0.000003054785782       -0.000127568309826
        0.362832648975750        0.000001680063175       -0.000005512373414       -0.000228683204151
        0.365251533302255        0.000002444804991       -0.000008021489649       -0.000330611171946
        0.367670417628760        0.000003223139243       -0.000010575283387       -0.000433044579062
        0.370089301955265        0.000004009780940       -0.000013156252724       -0.000535273784808
        0.372508186281770        0.000004807561305       -0.000015773849392       -0.000637673479870
        0.374927070608275        0.000005605820592       -0.000018392934465       -0.000738841074690
        0.377345954934780        0.000006412440792       -0.000021039533531       -0.000839827385599
        0.379764839261285        0.000007211409251       -0.000023660942354       -0.000938557368316
        0.382183723587790        0.000008015662549       -0.000026299772914       -0.001036741551337
        0.384602607914295        0.000008803943397       -0.000028886110941       -0.001131663191828
        0.387021492240800        0.000009594166194       -0.000031478902928       -0.001225666173340
        0.389440376567305        0.000010360023972       -0.000033991664277       -0.001315432600358
        0.391859260893810        0.000011124251083       -0.000036499158029       -0.001403903831200
        0.394278145220315        0.000011855771363       -0.000038899249603       -0.001487210532920
        0.396697029546820        0.000012581900959       -0.000041281737191       -0.001568846698451
        0.399115913873325        0.000013267157949       -0.000043530028750       -0.001644449683420
        0.401534798199830        0.000013943123975       -0.000045747919830       -0.001718013012554
        0.403953682526335        0.000014570353753       -0.000047805812528       -0.001784746381688
        0.406372566852840        0.000015184303440       -0.000049820216927       -0.001849082301881
        0.408791451179345        0.000015742080393       -0.000051650222362       -0.001905874988491
        0.411210335505850        0.000016282554376       -0.000053423541183       -0.001959928880845
        0.413629219832355        0.000016759968322       -0.000054989862685       -0.002005820325378
        0.416048104158860        0.000017216080747       -0.000056486379383       -0.002048653144619
        0.418466988485365        0.000017602912158       -0.000057755487005       -0.002082807683709
        0.420885872811870        0.000017964528140       -0.000058941949691       -0.002113610221677
        0.423304757138375        0.000018251418826       -0.000059883140306       -0.002135329987079
        0.425723641464880        0.000018509326553       -0.000060729326468       -0.002153435575263
        0.428142525791385        0.000018687943214       -0.000061315260362       -0.002162171717037
        0.430561410117890        0.000018834018044       -0.000061794515249       -0.002167067183511
        0.432980294444395        0.000018897206088       -0.000062001720776       -0.002162429253169
        0.435399178770900        0.000018924564026       -0.000062091460874       -0.002153763971615
        0.437818063097405        0.000018866489200       -0.000061900799020       -0.002135527324661
        0.440236947423910        0.000018769627237       -0.000061582972379       -0.002113120217833
        0.442655831750415        0.000018585902672       -0.000060980053467       -0.002081231320710
        0.445074716076920        0.000018360823609       -0.000060241549088       -0.002045075707261
        0.447493600403425        0.000018048620099       -0.000059217094405       -0.001999655261004
        0.449912484729930        0.000017692939654       -0.000058050093452       -0.001949921462806
        0.452331369056435        0.000017251077143       -0.000056600235212       -0.001891265284227
        0.454750253382940        0.000016764111340       -0.000055002497527       -0.001828300940667
        0.457169137709445        0.000016193129834       -0.000053129011335       -0.001756878571292
        0.459588022035950        0.000015575960917       -0.000051104091506       -0.001681206637261
        0.462006906362455        0.000014878169303       -0.000048814556336       -0.001597657680104
        0.464425790688960        0.000014133688702       -0.000046371944479       -0.001509972114987
        0.466844675015465        0.000013313190228       -0.000043679826109       -0.001415100329248
        0.469263559341970        0.000012446117385       -0.000040835009498       -0.001316259514822
        0.471682443668475        0.000011508810869       -0.000037759664366       -0.001211024728195
