#           time (fs)    |     mu_x (e.angstrom)   |     mu_y (e.angstrom)   |     mu_z (e.angstrom)   |
        0.000000000000000       -0.000000000000000       -0.000000000000000        0.000000000000000
        0.002418884326505       -0.000000004189852       -0.000000005359191        0.000034743147420
        0.004837768653010       -0.000000016753105       -0.000000021426550        0.000069443441153
        0.007256652979515       -0.000000037481952       -0.000000047939528        0.000103578645798
        0.009675537306020       -0.000000106513790       -0.000000136226889        0.000220731545575
        0.012094421632525       -0.000000202989873       -0.000000259618636        0.000336517392153
        0.014513305959030       -0.000000446306997       -0.000000570808961        0.000616529230981
        0.016932190285535       -0.000000754766583       -0.000000965320321        0.000893645419306
        0.019351074612040       -0.000001363530570       -0.000001743902220        0.001412533836241
        0.021769958938545       -0.000002091476025       -0.000002674921379        0.001925804214206
        0.024188843265050       -0.000003322212487       -0.000004248983689        0.002752988265412
        0.026607727591555       -0.000004739486422       -0.000006061633378        0.003570202696812
        0.029026611918060       -0.000006903090944       -0.000008828809667        0.004766425347962
        0.031445496244565       -0.000009330025526       -0.000011932798943        0.005946306843104
        0.033864380571070       -0.000012778053254       -0.000016342745435        0.007561735337154
        0.036283264897575       -0.000016571020379       -0.000021193906867        0.009152097652486
        0.038702149224080       -0.000021679640042       -0.000027727805462        0.011224645445924
        0.041121033550585       -0.000027214410765       -0.000034806844753        0.013260784217273
        0.043539917877090       -0.000034366482657       -0.000043954523169        0.015814695316554
        0.045958802203595       -0.000042019880790       -0.000053743605004        0.018318052474422
        0.048377686530100       -0.000051585688903       -0.000065978954498        0.021362784860508
        0.050796570856605       -0.000061716090906       -0.000078936831573        0.024339921401442
        0.053215455183110       -0.000074033318801       -0.000094692274845        0.027869360680892
        0.055634339509615       -0.000086960606406       -0.000111228732043        0.031311266770865
        0.058053223836120       -0.000102314190751       -0.000130869545508        0.035303294251226
        0.060472108162625       -0.000118299800679       -0.000151319974076        0.039185058199088
        0.062890992489130       -0.000136902322356       -0.000175119296059        0.043601489426053
        0.065309876815635       -0.000156130055646       -0.000199720230150        0.047882338528111
        0.067728761142140       -0.000178103333105       -0.000227835587307        0.052669239264911
        0.070147645468645       -0.000200661582830       -0.000256702025798        0.057292956266414
        0.072566529795150       -0.000226020114417       -0.000289154183561        0.062381333386183
        0.074985414121655       -0.000251886143920       -0.000322259483627        0.067277042811809
        0.077404298448160       -0.000280523005168       -0.000358914373722        0.072583898124952
        0.079823182774665       -0.000309549860054       -0.000396073441261        0.077667207519756
        0.082242067101170       -0.000341225599967       -0.000436627843392        0.083096933690234
        0.084660951427675       -0.000373132168275       -0.000477484262508        0.088271406380820
        0.087079835754180       -0.000407467168620       -0.000521455822373        0.093717496255611
        0.089498720080685       -0.000441831818537       -0.000565473466589        0.098876424994928
        0.091917604407190       -0.000478302486448       -0.000612195523736        0.104223459216789
        0.094336488733695       -0.000514560614323       -0.000658655080613        0.109251904279217
        0.096755373060200       -0.000552499676117       -0.000707276662553        0.114377777148674
        0.099174257386705       -0.000589945394485       -0.000755277385976        0.119154828187120
        0.101593141713210       -0.000628546452705       -0.000804768604219        0.123933168379762
        0.104012026039715       -0.000666338543388       -0.000853235489123        0.128334386558153
        0.106430910366220       -0.000704664954113       -0.000902398451915        0.132637127312549
        0.108849794692725       -0.000741837109282       -0.000950094907266        0.136537122646034
        0.111268679019230       -0.000778835136233       -0.000997580144895        0.140237175107260
        0.113687563345735       -0.000814310413280       -0.001043126123828        0.143512273231353
        0.116106447672240       -0.000848826521059       -0.001087454405771        0.146486256379979
        0.118525331998745       -0.000881435846474       -0.001129349836376        0.149017208736958
        0.120944216325250       -0.000912237907920       -0.001168939144367        0.151148189360297
        0.123363100651755       -0.000940742380875       -0.001205592389496        0.152822880670184
        0.125781984978260       -0.000966544491910       -0.001238789695039        0.154003076811218
        0.128200869304765       -0.000989661158399       -0.001268550652636        0.154719183411686
        0.130619753631270       -0.001009151676140       -0.001293668029618        0.154852584453873
        0.133038637957775       -0.001025582367275       -0.001314865364967        0.154520136519578
        0.135457522284280       -0.001037454711220       -0.001330219846766        0.153524992491273
        0.137876406610785       -0.001045917462466       -0.001341201724111        0.152068792324995
        0.140295290937290       -0.001048903142411       -0.001345158190228        0.149879924275691
        0.142714175263795       -0.001048165632736       -0.001344335744811        0.147241772026422
        0.145133059590300       -0.001041068889806       -0.001335351997028        0.143812654748742
        0.147551943916805       -0.001029983260708       -0.001321244663200        0.139953332432995
        0.149970828243310       -0.001011716630176       -0.001297917730173        0.135257900818377
        0.152389712569815       -0.000989254965911       -0.001269199422613        0.130158865877813
        0.154808596896320       -0.000958874994757       -0.001230312021608        0.124192997303495
        0.157227481222825       -0.000924164670108       -0.001185857062507        0.117857738629218
        0.159646365549330       -0.000880906952822       -0.001130423055915        0.110640366467870
        0.162065249875835       -0.000833264988576       -0.001069350660076        0.103095379308607
        0.164484134202340       -0.000776577627376       -0.000996658281520        0.094669197319013
        0.166903018528845       -0.000715543142585       -0.000918374362593        0.085964539080356
        0.169321902855350       -0.000645117699619       -0.000828025961299        0.076396263293159
        0.171740787181855       -0.000570481520533       -0.000732261013538        0.066605660038829
        0.174159671508360       -0.000486280516535       -0.000624208082805        0.055985823782082
        0.176578555834865       -0.000398111001256       -0.000511049929274        0.045206307133489
        0.178997440161370       -0.000300391033406       -0.000385622249126        0.033648575781877
        0.181416324487875       -0.000199055203957       -0.000255542531121        0.021999641495949
        0.183835208814380       -0.000088384809382       -0.000113470366525        0.009639645867273
        0.186254093140885        0.000025436048142        0.000032656221641       -0.002738061950184
        0.188672977467390        0.000148164566208        0.000190227771376       -0.015744361589180
        0.191091861793895        0.000273465567146        0.000351112329188       -0.028690823669480
        0.193510746120400        0.000407031007461        0.000522617544847       -0.042169218105331
        0.195929630446905        0.000542481194395        0.000696554521859       -0.055507241131271
        0.198348514773410        0.000685335520104        0.000880010344108       -0.069267760362617
        0.200767399099915        0.000829282676694        0.001064884215962       -0.082805565335718
        0.203186283426420        0.000979560591508        0.001257902866927       -0.096645327266663
        0.205605167752925        0.001130043585690        0.001451204118306       -0.110179475214591
        0.208024052079430        0.001285579748456        0.001651015117496       -0.123885839753563
        0.210442936405935        0.001440348450221        0.001849865502524       -0.137204438044192
        0.212861820732440        0.001598702253454        0.002053346918316       -0.150558406050767
        0.215280705058945        0.001755244876745        0.002254533768808       -0.163444534353902
        0.217699589385450        0.001913732521534        0.002458252356300       -0.176224328055605
        0.220118473711955        0.002069310054077        0.002658271531205       -0.188459621256621
        0.222537358038460        0.002225043475309        0.002858531242374       -0.200444382295326
        0.224956242364965        0.002376730692096        0.003053638160316       -0.211812708049877
        0.227375126691470        0.002526662730623        0.003246536373398       -0.222786250728510
        0.229794011017975        0.002671395141577        0.003432804442686       -0.233077421287617
        0.232212895344480        0.002812370227609        0.003614295140880       -0.242831981230489
        0.234631779670985        0.002946996189902        0.003787680792482       -0.251845441983968
        0.237050663997490        0.003075805695320        0.003953643820765       -0.260185363597731
        0.239469548323995        0.003197142825424        0.004110057251867       -0.267733803796757
        0.241888432650500        0.003310584159942        0.004256372686420       -0.274479112969645
        0.244307316977005        0.003415479106741        0.004391753326737       -0.280391946707516
        0.246726201303510        0.003510417570010        0.004514379895973       -0.285381757602749
        0.249145085630015        0.003595808153670        0.004624775508344       -0.289508424951309
        0.251563969956520        0.003669240507379        0.004719831901083       -0.292604131247134
        0.253982854283025        0.003732219183975        0.004801480116994       -0.294817170305011
        0.256401738609530        0.003781337869655        0.004865327898822       -0.295905371785036
        0.258820622936035        0.003819215443988        0.004914738867178       -0.296103212404487
        0.261239507262540        0.003841472339272        0.004944065601558       -0.295098327655296
        0.263658391589045        0.003851840814550        0.004958104298980       -0.293207757147646
        0.266077275915550        0.003845009390740        0.004950005341353       -0.290054272762365
        0.268496160242055        0.003825802812517        0.004925971962737       -0.286032523516432
        0.270915044568560        0.003788037529215        0.004878029274336       -0.280706830289053
        0.273333928895065        0.003737589653315        0.004813736006055       -0.274543239676198
        0.275752813221570        0.003667481404076        0.004724092233567       -0.267055007531738
        0.278171697548075        0.003584578997704        0.004617934623821       -0.258772202439482
        0.280590581874580        0.003481205408661        0.004485360627415       -0.249165248971925
        0.283009466201085        0.003365135986097        0.004336381724877       -0.238819811437480
        0.285428350527590        0.003228105373624        0.004160335726147       -0.227172424464986
        0.287847234854095        0.003078698179502        0.003968281173959       -0.214855001605642
        0.290266119180600        0.002908186000204        0.003748957749975       -0.201279684401038
        0.292685003507105        0.002725845091536        0.003514320108284       -0.187114515316516
        0.295103887833610        0.002522621774974        0.003252687386499       -0.171757134122221
        0.297522772160115        0.002308350123991        0.002976738118336       -0.155900978506190
        0.299941656486620        0.002073799271046        0.002674561731447       -0.138939305255310
        0.302360540813125        0.001829212919209        0.002359369522500       -0.121579772604154
        0.304779425139630        0.001565338980129        0.002019222157120       -0.103221430791742
        0.307198309466135        0.001292670421222        0.001667656540966       -0.084574724561199
        0.309617193792640        0.001002095137648        0.001292912247013       -0.065054562046610
        0.312036078119145        0.000704185293794        0.000908631858542       -0.045362668907641
        0.314454962445650        0.000390132395717        0.000503444659166       -0.024939597045653
        0.316873846772155        0.000070410770214        0.000090869820028       -0.004466966476595
        0.319292731098660       -0.000263321343803       -0.000339863446966        0.016579680677347
        0.321711615425165       -0.000600868505603       -0.000775593718776        0.037549907858963
        0.324130499751670       -0.000949946116736       -0.001226286011132        0.058924428378786
        0.326549384078175       -0.001300819561940       -0.001679372102557        0.080094573125261
        0.328968268404680       -0.001660424747505       -0.002143813559170        0.101489290949731
        0.331387152731185       -0.002019667476078       -0.002607867671391        0.122551593605224
        0.333806037057690       -0.002384560459704       -0.003079306781690        0.143651510106741
        0.336224921384195       -0.002746823871567       -0.003547438556275        0.164292811035656
        0.338643805710700       -0.003111415808086       -0.004018675861461        0.184780430744850
        0.341062690037205       -0.003471035841435       -0.004483589900862        0.204686991281938
        0.343481574363710       -0.003829470991220       -0.004947082773629        0.224247238520228
        0.345900458690215       -0.004180553122346       -0.005401186559470        0.243109621133701
        0.348319343016720       -0.004526799149891       -0.005849163462759        0.261434767183598
        0.350738227343225       -0.004863310919101       -0.006284684051783        0.278952697383226
        0.353157111669730       -0.005191255862306       -0.006709266576643        0.295747222372376
        0.355575995996235       -0.005507125417658       -0.007118374368973        0.311634359773868
        0.357994880322740       -0.005810679720469       -0.007511705282494        0.326619678808316
        0.360413764649245       -0.006099898732835       -0.007886643094708        0.340608230042156
        0.362832648975750       -0.006373100615574       -0.008241018575358        0.353527218488734
        0.365251533302255       -0.006629829815018       -0.008574234196052        0.365372329578204
        0.367670417628760       -0.006866952172935       -0.008882238380529        0.375993587116417
        0.370089301955265       -0.007085627686184       -0.009166518725084        0.385477457013429
        0.372508186281770       -0.007281284655730       -0.009421158626654        0.393599253751194
        0.374927070608275       -0.007456723285592       -0.009649763532136        0.400534913652491
        0.377345954934780       -0.007605974597398       -0.009844602309672        0.405988764122659
        0.379764839261285       -0.007733476175238       -0.010011395917998        0.410223469041473
        0.382183723587790       -0.007831927420796       -0.010140682378996        0.412877281467915
        0.384602607914295       -0.007907372380988       -0.010240259951665        0.414295461648671
        0.387021492240800       -0.007951269355217       -0.010299052070110        0.414056210963634
        0.389440376567305       -0.007971209724880       -0.010326859973078        0.412581931679519
        0.391859260893810       -0.007957525068488       -0.010311140109266        0.409397806057283
        0.394278145220315       -0.007919267136618       -0.010263586619629        0.404996685852117
        0.396697029546820       -0.007845777590406       -0.010170366063773        0.398858658762143
        0.399115913873325       -0.007747454617946       -0.010044920601984        0.391539199056582
        0.401534798199830       -0.007612807316334       -0.009872331048367        0.382481982774038
        0.403953682526335       -0.007453440773174       -0.009667609452302        0.372296266638210
        0.406372566852840       -0.007257207146356       -0.009414979066480        0.360398609381844
        0.408791451179345       -0.007036755112781       -0.009130812615705        0.347442334675270
        0.411210335505850       -0.006779471135683       -0.008798724500055        0.332826632430779
        0.413629219832355       -0.006498862683506       -0.008436210583318        0.317238454638860
        0.416048104158860       -0.006182054403783       -0.008026541685319        0.300069660316466
        0.418466988485365       -0.005843208974574       -0.007588074286545        0.282029833152526
        0.420885872811870       -0.005469402468716       -0.007104013129846        0.262513659725920
        0.423304757138375       -0.005075233490195       -0.006593291683591        0.242241976463724
        0.425723641464880       -0.004647948632962       -0.006039333724734        0.220622406527355
        0.428142525791385       -0.004202350855807       -0.005461349347078        0.198375461330940
        0.430561410117890       -0.003726078539313       -0.004843269252249        0.174931592219907
        0.432980294444395       -0.003233898830904       -0.004204267865429        0.150999397483824
        0.435399178770900       -0.002714061531005       -0.003529068536162        0.126041667695058
        0.437818063097405       -0.002181053125245       -0.002836490946737        0.100743679539860
        0.440236947423910       -0.001623948979881       -0.002112329671039        0.074609537613013
        0.442655831750415       -0.001056709448896       -0.001374729201361        0.048290156170648
        0.445074716076920       -0.000469440281551       -0.000610821836538        0.021339246467247
        0.447493600403425        0.000124666237974        0.000162239381924       -0.005637130432741
        0.449912484729930        0.000734282249771        0.000955734804291       -0.033028180224828
        0.452331369056435        0.001347217778423        0.001753809314888       -0.060282462508837
        0.454750253382940        0.001970747827121        0.002565927754754       -0.087725560276505
        0.457169137709445        0.002593907155783        0.003377824097939       -0.114869537330736
        0.459588022035950        0.003222418701454        0.004196945300647       -0.141970856391296
        0.462006906362455        0.003846748584949        0.005010884940897       -0.168612940062871
        0.464425790688960        0.004470935958738        0.005824899465637       -0.194978764178759
        0.466844675015465        0.005087065333758        0.006628686877028       -0.220729809054218
        0.469263559341970        0.005697386339681        0.007425173795465       -0.245972399192943
        0.471682443668475        0.006295765774735        0.008206377120953       -0.270451509445576
