#           time (fs)    |     mu_x (e.angstrom)   |     mu_y (e.angstrom)   |     mu_z (e.angstrom)   |
        0.000000000000000       -0.000000000000000       -0.000000000000000        0.000000000000000
        0.002418884326505       -0.000000000919612        0.000000000419543        0.000014954757059
        0.004837768653010       -0.000000015633418        0.000000007132080        0.000127109795790
        0.007256652979515       -0.000000044098680        0.000000020118167        0.000239030236370
        0.009675537306020       -0.000000111065958        0.000000050669103        0.000451503843625
        0.012094421632525       -0.000000203985851        0.000000093059881        0.000663381686388
        0.014513305959030       -0.000000360662189        0.000000164536737        0.000977406581044
        0.016932190285535       -0.000000555502155        0.000000253424228        0.001290346793736
        0.019351074612040       -0.000000839002638        0.000000382759211        0.001705236715012
        0.021769958938545       -0.000001172605380        0.000000534951388        0.002118427037148
        0.024188843265050       -0.000001618523663        0.000000738382696        0.002631575590159
        0.026607727591555       -0.000002125930503        0.000000969865844        0.003142287804139
        0.029026611918060       -0.000002767180432        0.000001262409300        0.003749199131911
        0.031445496244565       -0.000003480480583        0.000001587823160        0.004352822114018
        0.033864380571070       -0.000004346187393        0.000001982766496        0.005047172949761
        0.036283264897575       -0.000005293422058        0.000002414904465        0.005737277014270
        0.038702149224080       -0.000006407889231        0.000002923336181        0.006511009155507
        0.041121033550585       -0.000007612036388        0.000003472682362        0.007279440694209
        0.043539917877090       -0.000008993812771        0.000004103066352        0.008122882443170
        0.045958802203595       -0.000010471876931        0.000004777380526        0.008959887367464
        0.048377686530100       -0.000012132946708        0.000005535186768        0.009861902008343
        0.050796570856605       -0.000013895175827        0.000006339147376        0.010756276029897
        0.053215455183110       -0.000015840291419        0.000007226547827        0.011704434970930
        0.055634339509615       -0.000017889540581        0.000008161461898        0.012643698317605
        0.058053223836120       -0.000020115715659        0.000009177099387        0.013624476121811
        0.060472108162625       -0.000022446974137        0.000010240686944        0.014595069885343
        0.062890992489130       -0.000024943150591        0.000011379523366        0.015594058054854
        0.065309876815635       -0.000027543245537        0.000012565782325        0.016581559012135
        0.067728761142140       -0.000030290144659        0.000013819030757        0.017583695083148
        0.070147645468645       -0.000033137631003        0.000015118186658        0.018573045529812
        0.072566529795150       -0.000036107795270        0.000016473330303        0.019562853783329
        0.074985414121655       -0.000039173037528        0.000017871873436        0.020538602671421
        0.077404298448160       -0.000042331065365        0.000019312772439        0.021500442573106
        0.079823182774665       -0.000045576512999        0.000020793583112        0.022446994057930
        0.082242067101170       -0.000048879484806        0.000022300668460        0.023365312411681
        0.084660951427675       -0.000052260138693        0.000023843229261        0.024267177789396
        0.087079835754180       -0.000055658228324        0.000025393781118        0.025126760525514
        0.089498720080685       -0.000059122291778        0.000026974473213        0.025968809484568
        0.091917604407190       -0.000062559553647        0.000028542979212        0.026755029005696
        0.094336488733695       -0.000066049257448        0.000030135457874        0.027522736122614
        0.096755373060200       -0.000069464575585        0.000031694045172        0.028221790198809
        0.099174257386705       -0.000072917162658        0.000033269688027        0.028901472681992
        0.101593141713210       -0.000076245344439        0.000034788621276        0.029500611019139
        0.104012026039715       -0.000079594196228        0.000036317041142        0.030079653842016
        0.106430910366220       -0.000082767190209        0.000037765277055        0.030567388643254
        0.108849794692725       -0.000085943073591        0.000039214889771        0.031034453408012
        0.111268679019230       -0.000088891287967        0.000040560677642        0.031400750502685
        0.113687563345735       -0.000091823698670        0.000041899314006        0.031745964634842
        0.116106447672240       -0.000094477394414        0.000043110830424        0.031982412059669
        0.118525331998745       -0.000097095970539        0.000044306380261        0.032197535247720
        0.120944216325250       -0.000099386701329        0.000045352385358        0.032297486525509
        0.123363100651755       -0.000101622678682        0.000046373460893        0.032376051683799
        0.125781984978260       -0.000103484748285        0.000047223962829        0.032334741450305
        0.128200869304765       -0.000105272427881        0.000048040567902        0.032272167891465
        0.130619753631270       -0.000106644334835        0.000048667481862        0.032086797964546
        0.133038637957775       -0.000107922532213        0.000049251673188        0.031880474913672
        0.135457522284280       -0.000108748371374        0.000049629461078        0.031550269373608
        0.137876406610785       -0.000109461817185        0.000049955987654        0.031199608432823
        0.140295290937290       -0.000109692608113        0.000050062264789        0.030725836780993
        0.142714175263795       -0.000109793269917        0.000050109171736        0.030232292452499
        0.145133059590300       -0.000109388183008        0.000049925267266        0.029618260429539
        0.147551943916805       -0.000108836479297        0.000049674450888        0.028985318319688
        0.149970828243310       -0.000107763932168        0.000049185909376        0.028236326485515
        0.152389712569815       -0.000106529811298        0.000048623610911        0.027469459333550
        0.154808596896320       -0.000104768410055        0.000047820623453        0.026592730031891
        0.157227481222825       -0.000102832269007        0.000046937850039        0.025699322226408
        0.159646365549330       -0.000100371571741        0.000045815604499        0.024703896067196
        0.162065249875835       -0.000097724992422        0.000044608467090        0.023693137822648
        0.164484134202340       -0.000094566075423        0.000043167408476        0.022589741308650
        0.166903018528845       -0.000091212359464        0.000041637367925        0.021472494165078
        0.169321902855350       -0.000087368170279        0.000039883361554        0.020273380556326
        0.171740787181855       -0.000083322656988        0.000038037375766        0.019062016329985
        0.174159671508360       -0.000078818142419        0.000035981767675        0.017780782273408
        0.176578555834865       -0.000074108298604        0.000033832334564        0.016488998016489
        0.178997440161370       -0.000068980300034        0.000031491905595        0.015140378861492
        0.181416324487875       -0.000063645574729        0.000029056998561        0.013782990778669
        0.183835208814380       -0.000057942487656        0.000026453810591        0.012382637845860
        0.186254093140885       -0.000052033929350        0.000023756705340        0.010975357457577
        0.188672977467390       -0.000045815128635        0.000020917840255        0.009539600821698
        0.191091861793895       -0.000039394767263        0.000017986833893        0.008098796953331
        0.193510746120400       -0.000032729804287        0.000014944028083        0.006644397537903
        0.195929630446905       -0.000025869804919        0.000011812053610        0.005186847945405
        0.198348514773410       -0.000018837387462        0.000008601232847        0.003730742901715
        0.200767399099915       -0.000011618987290        0.000005305374301        0.002273379514293
        0.203186283426420       -0.000004305757432        0.000001966095996        0.000832424968233
        0.205605167752925        0.000003181997884       -0.000001452988429       -0.000607923165873
        0.208024052079430        0.000010682868258       -0.000004878176674       -0.002017207870851
        0.210442936405935        0.000018344568570       -0.000008376914246       -0.003424069810049
        0.212861820732440        0.000025934941147       -0.000011843189005       -0.004785752267777
        0.215280705058945        0.000033670411896       -0.000015375823713       -0.006143264476408
        0.217699589385450        0.000041248877107       -0.000018836860625       -0.007442239753396
        0.220118473711955        0.000048954907749       -0.000022356243352       -0.008735385470876
        0.222537358038460        0.000056418581565       -0.000025765038677       -0.009957603159151
        0.224956242364965        0.000063990751580       -0.000029223462169       -0.011172437994451
        0.227375126691470        0.000071237141201       -0.000032533185997       -0.012305112135741
        0.229794011017975        0.000078571710415       -0.000035883249363       -0.013428972264474
        0.232212895344480        0.000085500614150       -0.000039048114550       -0.014460770776046
        0.234631779670985        0.000092496442232       -0.000042243601162       -0.015482460398268
        0.237050663997490        0.000099011847554       -0.000045219731462       -0.016403670962083
        0.239469548323995        0.000105572306299       -0.000048216483559       -0.017313626014254
        0.241888432650500        0.000111584249392       -0.000050962764132       -0.018116295772032
        0.244307316977005        0.000117619090845       -0.000053719537195       -0.018906721270932
        0.246726201303510        0.000123045441004       -0.000056198430682       -0.019584768092040
        0.249145085630015        0.000128472584626       -0.000058677710710       -0.020249746915631
        0.251563969956520        0.000133240717612       -0.000060856022457       -0.020799040465438
        0.253982854283025        0.000137987920522       -0.000063024789683       -0.021334611838591
        0.256401738609530        0.000142036246426       -0.000064874366325       -0.021753023164652
        0.258820622936035        0.000146042622329       -0.000066704789632       -0.022157229608881
        0.261239507262540        0.000149321935618       -0.000068203136273       -0.022444648472839
        0.263658391589045        0.000152539290226       -0.000069673183611       -0.022717550490540
        0.266077275915550        0.000155013912421       -0.000070803986104       -0.022875870196780
        0.268496160242055        0.000157407866083       -0.000071897937541       -0.023019528483681
        0.270915044568560        0.000159056554921       -0.000072651477934       -0.023052598482879
        0.273333928895065        0.000160607426647       -0.000073360329557       -0.023071023988896
        0.275752813221570        0.000161424029495       -0.000073733784591       -0.022984571057134
        0.278171697548075        0.000162127460604       -0.000074055533363       -0.022883643737036
        0.280590581874580        0.000162121294348       -0.000074053147924       -0.022685163040609
        0.283009466201085        0.000161988594456       -0.000073992949629       -0.022472520643397
        0.285428350527590        0.000161184538903       -0.000073626079283       -0.022171138487587
        0.287847234854095        0.000160242741923       -0.000073196273965       -0.021856037219039
        0.290266119180600        0.000158681038934       -0.000072483293049       -0.021462347738122
        0.292685003507105        0.000156972661942       -0.000071703294726       -0.021055497086852
        0.295103887833610        0.000154708417916       -0.000070669368947       -0.020581375555013
        0.297522772160115        0.000152290921236       -0.000069565418857       -0.020094749991217
        0.299941656486620        0.000149393316093       -0.000068242143858       -0.019553145813261
        0.302360540813125        0.000146338268501       -0.000066846929069       -0.018999776444484
        0.304779425139630        0.000142889479906       -0.000065271838970       -0.018404489215035
        0.307198309466135        0.000139281438487       -0.000063623980688       -0.017798238808746
        0.309617193792640        0.000135375295566       -0.000061839933122       -0.017163681103898
        0.312036078119145        0.000131310415279       -0.000059983351589       -0.016519006157248
        0.314454962445650        0.000127050801427       -0.000058037798177       -0.015859956938858
        0.316873846772155        0.000122635194772       -0.000056020963475       -0.015191660687343
        0.319292731098660        0.000118134224236       -0.000053965116995       -0.014523013353941
        0.321711615425165        0.000113482096523       -0.000051840197366       -0.013845993759339
        0.324130499751670        0.000108858094167       -0.000049728109045       -0.013182502966308
        0.326549384078175        0.000104089684524       -0.000047550030489       -0.012511499807784
        0.328968268404680        0.000099465002432       -0.000045437592749       -0.011867531201615
        0.331387152731185        0.000094704364961       -0.000043263025584       -0.011216876410721
        0.333806037057690        0.000090203073244       -0.000041206917304       -0.010606163377133
        0.336224921384195        0.000085575736360       -0.000039093207040       -0.009989538707152
        0.338643805710700        0.000081321228637       -0.000037149799789       -0.009424950121295
        0.341062690037205        0.000076951773645       -0.000035153861052       -0.008855156124581
        0.343481574363710        0.000073064330045       -0.000033378105846       -0.008348478914882
        0.345900458690215        0.000069073932348       -0.000031555299160       -0.007837219020102
        0.348319343016720        0.000065668284547       -0.000029999614072       -0.007398959118256
        0.350738227343225        0.000062172262417       -0.000028402626012       -0.006956642355523
        0.353157111669730        0.000059355206042       -0.000027115805343       -0.006595847307232
        0.355575995996235        0.000056460622642       -0.000025793552933       -0.006231412926682
        0.357994880322740        0.000054328722449       -0.000024819718683       -0.005955519085719
        0.360413764649245        0.000052132086718       -0.000023816298884       -0.005676285958858
        0.362832648975750        0.000050769519087       -0.000023193914887       -0.005490992786343
        0.365251533302255        0.000049354630175       -0.000022547619598       -0.005302536075214
        0.367670417628760        0.000048831205844       -0.000022308587949       -0.005211709623167
        0.370089301955265        0.000048267183999       -0.000022051004151       -0.005117766756452
        0.372508186281770        0.000048636591477       -0.000022219862409       -0.005123373936863
        0.374927070608275        0.000048976135723       -0.000022375075877       -0.005125781451867
        0.377345954934780        0.000050274442536       -0.000022968312050       -0.005227856187615
        0.379764839261285        0.000051552352059       -0.000023552231550       -0.005326518490508
        0.382183723587790        0.000053796796983       -0.000024577732022       -0.005523160320818
        0.384602607914295        0.000056028789052       -0.000025597548974       -0.005716050893046
        0.387021492240800        0.000059216893793       -0.000027054192384       -0.006003456072511
        0.389440376567305        0.000062398746219       -0.000028507988824       -0.006286651117652
        0.391859260893810        0.000066507769700       -0.000030385396498       -0.006659175713224
        0.394278145220315        0.000070614810455       -0.000032261911657       -0.007026919704733
        0.396697029546820        0.000075601563048       -0.000034540362510       -0.007477173668331
        0.399115913873325        0.000080588523765       -0.000036818925665       -0.007921975733569
        0.401534798199830        0.000086389552597       -0.000039469440648       -0.008440946418032
        0.403953682526335        0.000092190796365       -0.000042120074986       -0.008953705986485
        0.406372566852840        0.000098722946284       -0.000045104673167       -0.009530909087939
        0.408791451179345        0.000105253073572       -0.000048088372401       -0.010101068750029
        0.411210335505850        0.000112414421631       -0.000051360497689       -0.010724724208483
        0.413629219832355        0.000119569251386       -0.000054629674055       -0.011340447283902
        0.416048104158860        0.000127240405933       -0.000058134788464       -0.011997677263359
        0.418466988485365        0.000134898322085       -0.000061633887632       -0.012646047171703
        0.420885872811870        0.000142944070782       -0.000065310223924       -0.013323092878096
        0.423304757138375        0.000150967717644       -0.000068976499244       -0.013990331046324
        0.425723641464880        0.000159239002192       -0.000072755962765       -0.014672784831918
        0.428142525791385        0.000167477305631       -0.000076520398289       -0.015344483568626
        0.430561410117890        0.000175813494698       -0.000080329604985       -0.016017532520139
        0.432980294444395        0.000184103979754       -0.000084117973851       -0.016678899040587
        0.435399178770900        0.000192335405749       -0.000087879408759       -0.017327576059098
        0.437818063097405        0.000200506775492       -0.000091613450876       -0.017963683661213
        0.440236947423910        0.000208457495480       -0.000095246728969       -0.018573121917864
        0.442655831750415        0.000216332430629       -0.000098845429506       -0.019169164190904
        0.445074716076920        0.000223823166971       -0.000102268638617       -0.019724850785304
        0.447493600403425        0.000231221301116       -0.000105649586710       -0.020266394681262
        0.449912484729930        0.000238072513410       -0.000108780690455       -0.020754419340151
        0.452331369056435        0.000244813534746       -0.000111861495730       -0.021227652954034
        0.454750253382940        0.000250848571427       -0.000114619772872       -0.021634947685930
        0.457169137709445        0.000256755398765       -0.000117319515986       -0.022026918674420
        0.459588022035950        0.000261803674381       -0.000119627011624       -0.022341484440317
        0.462006906362455        0.000266705652960       -0.000121867703960       -0.022640325157666
        0.464425790688960        0.000270605795698       -0.000123650667286       -0.022851441826011
        0.466844675015465        0.000274341856957       -0.000125358694363       -0.023046577468956
        0.469263559341970        0.000276944770524       -0.000126548977484       -0.023144993591912
        0.471682443668475        0.000279366499646       -0.000127656500451       -0.023227329918497
