#             time (fs)      |   total net charge (e)  |   charge (atom_1) (e)   |   charge (atom_2) (e)   |        ...        |   charge (atom_N) (e)   |
          0.000000000000000       -0.000000000000000       -0.000000000000000        0.000000000000000
          0.120944216325250        0.000000000000446        0.000034101168617       -0.000034101168170
          0.241888432650500        0.000000000001399        0.000175507413449       -0.000175507412050
          0.362832648975750        0.000000000002802        0.000318179638384       -0.000318179635582
          0.483776865301000        0.000000000004541        0.000479093318967       -0.000479093314426
          0.604721081626250        0.000000000006489        0.000507672881384       -0.000507672874895
          0.725665297951500        0.000000000008447        0.000459365632562       -0.000459365624115
          0.846609514276750        0.000000000010241        0.000205623544768       -0.000205623534527
          0.967553730602000        0.000000000011673       -0.000112328057142        0.000112328068815
          1.088497946927250        0.000000000012615       -0.000566209596161        0.000566209608776
          1.209442163252500        0.000000000012939       -0.000937561184092        0.000937561197031
          1.330386379577750        0.000000000012583       -0.001269784620859        0.001269784633442
          1.451330595903000        0.000000000011381       -0.001336872818281        0.001336872829662
          1.572274812228250        0.000000000009260       -0.001223660396983        0.001223660406243
          1.693219028553500        0.000000000006004       -0.000781331927846        0.000781331933849
          1.814163244878750        0.000000000001686       -0.000187609595869        0.000187609597555
          1.935107461204000       -0.000000000003683        0.000591953208236       -0.000591953211919
          2.056051677529250       -0.000000000009778        0.001307302202442       -0.001307302212220
          2.176995893854500       -0.000000000016404        0.001922908496419       -0.001922908512823
          2.297940110179750       -0.000000000023368        0.002212536838283       -0.002212536861651
          2.418884326505000       -0.000000000030612        0.002166562532823       -0.002166562563435
          2.539828542830250       -0.000000000038132        0.001694696803322       -0.001694696841455
          2.660772759155500       -0.000000000045776        0.000885383400643       -0.000885383446420
          2.781716975480750       -0.000000000053276       -0.000165434600418        0.000165434547142
          2.902661191806000       -0.000000000060188       -0.001288399724935        0.001288399664747
          3.023605408131250       -0.000000000066098       -0.002257004499408        0.002257004433310
          3.144549624456500       -0.000000000070783       -0.002935847515427        0.002935847444644
          3.265493840781750       -0.000000000074189       -0.003098178308924        0.003098178234735
          3.386438057107000       -0.000000000076353       -0.002783974609249        0.002783974532896
          3.507382273432250       -0.000000000077295       -0.001877988394346        0.001877988317051
          3.628326489757500       -0.000000000076822       -0.000664985670491        0.000664985593669
          3.749270706082750       -0.000000000074761        0.000850110034808       -0.000850110109569
          3.870214922408000       -0.000000000070978        0.002199727958462       -0.002199728029439
          3.991159138733250       -0.000000000065514        0.003374930482370       -0.003374930547885
          4.112103355058500       -0.000000000058673        0.003893087400913       -0.003893087459586
          4.233047571383750       -0.000000000050533        0.003908893231187       -0.003908893281720
          4.353991787709000       -0.000000000041354        0.003088117246337       -0.003088117287691
          4.474936004034250       -0.000000000030963        0.001848174622984       -0.001848174653947
          4.595880220359500       -0.000000000019569        0.000052029486430       -0.000052029505999
          4.716824436684750       -0.000000000007350       -0.001669334845413        0.001669334838063
          4.837768653010000        0.000000000005065       -0.003363763134663        0.003363763139728
          4.958712869335250        0.000000000017286       -0.004373197499314        0.004373197516600
          5.079657085660500        0.000000000028836       -0.004855695839215        0.004855695868052
          5.200601301985750        0.000000000040147       -0.004333351031706        0.004333351071853
          5.321545518311000        0.000000000051014       -0.003224738305599        0.003224738356613
          5.442489734636251        0.000000000062148       -0.001322708867770        0.001322708929917
          5.563433950961501        0.000000000072491        0.000700871749674       -0.000700871677183
          5.684378167286750        0.000000000082172        0.002875014002912       -0.002875013920740
          5.805322383612000        0.000000000089784        0.004453509334762       -0.004453509244978
          5.926266599937250        0.000000000095873        0.005515260652864       -0.005515260556990
          6.047210816262500        0.000000000100261        0.005481845274392       -0.005481845174131
          6.168155032587750        0.000000000104122        0.004692540008960       -0.004692539904839
          6.289099248913001        0.000000000107651        0.002879475269470       -0.002879475161819
          6.410043465238251        0.000000000111113        0.000692959400385       -0.000692959289272
          6.530987681563500        0.000000000113931       -0.001879476209117        0.001879476323048
          6.651931897888750        0.000000000115887       -0.004031796922689        0.004031797038576
          6.772876114214000        0.000000000116791       -0.005755507364229        0.005755507481020
          6.893820330539250        0.000000000117410       -0.006362628797471        0.006362628914881
          7.014764546864500        0.000000000118080       -0.006087452604351        0.006087452722431
          7.135708763189751        0.000000000119502       -0.004570148624754        0.004570148744256
          7.256652979515001        0.000000000121274       -0.002404378676392        0.002404378797666
          7.377597195840250        0.000000000123347        0.000434308718899       -0.000434308595552
          7.498541412165500        0.000000000125477        0.003108135371782       -0.003108135246304
          7.619485628490750        0.000000000128006        0.005522404100638       -0.005522403972632
          7.740429844816000        0.000000000131498        0.006887641814865       -0.006887641683367
          7.861374061141250        0.000000000135907        0.007299329143938       -0.007299329008031
          7.982318277466501        0.000000000140920        0.006296459285125       -0.006296459144205
          8.103262493791750        0.000000000145286        0.004360084695960       -0.004360084550673
          8.224206710117000        0.000000000148460        0.001440852718714       -0.001440852570254
          8.345150926442249        0.000000000150388       -0.001645032634593        0.001645032784981
          8.466095142767500        0.000000000152227       -0.004715765591940        0.004715765744167
          8.587039359092751        0.000000000154917       -0.006905142639718        0.006905142794635
          8.707983575418000        0.000000000158914       -0.008146920848121        0.008146921007036
          8.828927791743251        0.000000000162686       -0.007865920494868        0.007865920657554
          8.949872008068500        0.000000000164804       -0.006395791984462        0.006395792149267
          9.070816224393750        0.000000000163033       -0.003620430744309        0.003620430907342
          9.191760440718999        0.000000000158397       -0.000308403463381        0.000308403621778
          9.312704657044250        0.000000000151583        0.003321093034891       -0.003321092883308
          9.433648873369501        0.000000000145993        0.006318755963697       -0.006318755817704
          9.554593089694750        0.000000000141701        0.008491639607254       -0.008491639465553
          9.675537306020001        0.000000000139022        0.009102010107548       -0.009102009968526
          9.796481522345250        0.000000000135036        0.008349369340681       -0.008349369205645
          9.917425738670500        0.000000000128448        0.005973017459370       -0.005973017330922
         10.038369954995749        0.000000000118554        0.002692485005131       -0.002692484886577
         10.159314171321000        0.000000000107285       -0.001314973176158        0.001314973283443
         10.280258387646251        0.000000000096904       -0.005015879899191        0.005015879996095
         10.401202603971500        0.000000000089338       -0.008136070292928        0.008136070382266
         10.522146820296751        0.000000000084160       -0.009758010161391        0.009758010245551
         10.643091036622000        0.000000000080375       -0.009938206405442        0.009938206485817
         10.764035252947250        0.000000000075950       -0.008244075775895        0.008244075851845
         10.884979469272501        0.000000000071148       -0.005285201389915        0.005285201461063
         11.005923685597750        0.000000000066505       -0.001181155839748        0.001181155906252
         11.126867901923001        0.000000000063809        0.003041923740592       -0.003041923676784
         11.247812118248250        0.000000000063509        0.007001738395215       -0.007001738331706
         11.368756334573501        0.000000000065041        0.009691611721304       -0.009691611656263
         11.489700550898750        0.000000000067469        0.010936192697750       -0.010936192630281
         11.610644767224001        0.000000000070215        0.010203806572030       -0.010203806501815
         11.731588983549251        0.000000000074103        0.007852949700453       -0.007852949626350
         11.852533199874500        0.000000000080226        0.004002138668203       -0.004002138587976
         11.973477416199751        0.000000000088996       -0.000489945937122        0.000489946026119
         12.094421632525000        0.000000000099148       -0.005075281038671        0.005075281137820
         12.215365848850251        0.000000000108570       -0.008788926329214        0.008788926437784
         12.336310065175500        0.000000000115297       -0.011146435649018        0.011146435764315
         12.457254281500751        0.000000000120050       -0.011584691028948        0.011584691148999
         12.578198497826001        0.000000000124518       -0.010118122556547        0.010118122681065
         12.699142714151250        0.000000000131827       -0.006864948583340        0.006864948715167
         12.820086930476501        0.000000000142191       -0.002431852384303        0.002431852526494
         12.941031146801750        0.000000000154070        0.002511390870341       -0.002511390716271
         13.061975363127001        0.000000000163617        0.007080092442630       -0.007080092279013
         13.182919579452250        0.000000000168008        0.010531936769608       -0.010531936601599
         13.303863795777501        0.000000000167342        0.012236427144438       -0.012236426977096
         13.424808012102751        0.000000000164201        0.011901245482989       -0.011901245318788
         13.545752228428000        0.000000000162519        0.009537940137495       -0.009537939974977
         13.666696444753251        0.000000000164004        0.005529119523949       -0.005529119359945
         13.787640661078500        0.000000000167745        0.000519391834400       -0.000519391666655
         13.908584877403751        0.000000000170575       -0.004644088229657        0.004644088400233
         14.029529093729000        0.000000000169680       -0.009102213819374        0.009102213989054
         14.150473310054251        0.000000000164791       -0.012070631308621        0.012070631473412
         14.271417526379501        0.000000000157880       -0.013051998104374        0.013051998262253
         14.392361742704750        0.000000000152029       -0.011817741343783        0.011817741495811
         14.513305959030001        0.000000000148604       -0.008586881239555        0.008586881388160
         14.634250175355250        0.000000000147081       -0.003821236381419        0.003821236528500
         14.755194391680501        0.000000000145558        0.001629250935770       -0.001629250790212
         14.876138608005750        0.000000000142955        0.006929593011339       -0.006929592868384
         14.997082824331001        0.000000000139927        0.011087751908648       -0.011087751768721
         15.118027040656251        0.000000000138093        0.013487454904583       -0.013487454766490
         15.238971256981500        0.000000000138492        0.013577747548765       -0.013577747410274
         15.359915473306751        0.000000000139967        0.011437505228280       -0.011437505088313
         15.480859689632000        0.000000000140109        0.007248555277081       -0.007248555136972
         15.601803905957251        0.000000000137087        0.001841549464845       -0.001841549327758
         15.722748122282500        0.000000000131763       -0.004052436440093        0.004052436571856
         15.843692338607751        0.000000000127302       -0.009265545520243        0.009265545647546
         15.964636554933001        0.000000000127133       -0.013086322302558        0.013086322429692
         16.085580771258250        0.000000000131391       -0.014653792074297        0.014653792205688
         16.206524987583499        0.000000000137090       -0.013861479647595        0.013861479784685
         16.327469203908752        0.000000000138036       -0.010602818380510        0.010602818518545
         16.448413420234001        0.000000000131521       -0.005590350131119        0.005590350262640
         16.569357636559250        0.000000000117632        0.000558272273664       -0.000558272156033
         16.690301852884499        0.000000000102917        0.006614861248041       -0.006614861145123
         16.811246069209751        0.000000000092557        0.011747073011772       -0.011747072919216
         16.932190285535000        0.000000000089677        0.014874372996992       -0.014874372907315
         17.053134501860249        0.000000000090689        0.015620752651196       -0.015620752560508
         17.174078718185502        0.000000000089178        0.013642923697281       -0.013642923608102
         17.295022934510751        0.000000000079814        0.009398343780429       -0.009398343700615
         17.415967150836000        0.000000000062183        0.003417483823311       -0.003417483761129
         17.536911367161249        0.000000000041365       -0.003171841402109        0.003171841443474
         17.657855583486501        0.000000000024154       -0.009377562802594        0.009377562826748
         17.778799799811750        0.000000000014062       -0.014037801649850        0.014037801663913
         17.899744016136999        0.000000000010168       -0.016417551849367        0.016417551859535
         18.020688232462252        0.000000000007128       -0.016025647883421        0.016025647890549
         18.141632448787501        0.000000000000903       -0.012919071330885        0.012919071331788
         18.262576665112750       -0.000000000009556       -0.007583691243615        0.007583691234059
         18.383520881437999       -0.000000000021134       -0.000870953923704        0.000870953902570
         18.504465097763251       -0.000000000029663        0.006041608524993       -0.006041608554656
         18.625409314088500       -0.000000000033561        0.012062920898310       -0.012062920931872
         18.746353530413749       -0.000000000034126        0.016048046398663       -0.016048046432789
         18.867297746739002       -0.000000000034135        0.017438125767745       -0.017438125801880
         18.988241963064251       -0.000000000034806        0.015800808908734       -0.015800808943540
         19.109186179389500       -0.000000000034266        0.011573809908339       -0.011573809942605
         19.230130395714749       -0.000000000029895        0.005226051644993       -0.005226051674888
         19.351074612040001       -0.000000000020481       -0.001944858871886        0.001944858851405
         19.472018828365250       -0.000000000008722       -0.008992440284313        0.008992440275591
         19.592963044690499        0.000000000000580       -0.014437268348492        0.014437268349072
         19.713907261015752        0.000000000004277       -0.017641951155424        0.017641951159701
         19.834851477341001        0.000000000004109       -0.017732319906846        0.017732319910956
         19.955795693666250        0.000000000005243       -0.014991994313315        0.014991994318558
         20.076739909991499        0.000000000014390       -0.009523961771023        0.009523961785413
         20.197684126316751        0.000000000031270       -0.002574333784236        0.002574333815506
         20.318628342642000        0.000000000052613        0.005042256803354       -0.005042256750740
         20.439572558967249        0.000000000067969        0.011685003078048       -0.011685003010079
         20.560516775292502        0.000000000073543        0.016582963131054       -0.016582963057512
         20.681460991617751        0.000000000068533        0.018534579603799       -0.018534579535266
         20.802405207943000        0.000000000061698        0.017554892498005       -0.017554892436307
         20.923349424268253        0.000000000060447        0.013420802022213       -0.013420801961766
         21.044293640593501        0.000000000068930        0.007173056892943       -0.007173056824013
         21.165237856918750        0.000000000083278       -0.000517726997182        0.000517727080460
         21.286182073243999        0.000000000095537       -0.007993440967660        0.007993441063198
         21.407126289569252        0.000000000098893       -0.014358615349149        0.014358615448042
         21.528070505894501        0.000000000093133       -0.018162746645513        0.018162746738646
         21.649014722219750        0.000000000083083       -0.019115839078196        0.019115839161278
         21.769958938545003        0.000000000076706       -0.016667273671908        0.016667273748614
         21.890903154870252        0.000000000076423       -0.011568855990875        0.011568856067297
         22.011847371195501        0.000000000081551       -0.004290715921887        0.004290716003438
         22.132791587520749        0.000000000086234        0.003593010716801       -0.003593010630567
         22.253735803846002        0.000000000087879        0.011118119143523       -0.011118119055644
         22.374680020171251        0.000000000086515        0.016652464844953       -0.016652464758438
         22.495624236496500        0.000000000085911        0.019601967883065       -0.019601967797154
         22.616568452821753        0.000000000088776        0.019095533616048       -0.019095533527271
         22.737512669147002        0.000000000093894        0.015531759982188       -0.015531759888294
         22.858456885472251        0.000000000097452        0.009137952674250       -0.009137952576798
         22.979401101797500        0.000000000096218        0.001299467260106       -0.001299467163888
         23.100345318122752        0.000000000091680       -0.007004454177466        0.007004454269147
