#     time (fs)  |  E_x (eV/ang)  | E_y (eV/ang) | E_z (eV/ang)
     0.00000000     0.00000000     0.00000000     1.10332899
     0.00241888     0.04337516     0.00000000     1.10247606
     0.00483777     0.08668327     0.00000000     1.09991858
     0.00725665     0.12985735     0.00000000     1.09566050
     0.00967554     0.17283065     0.00000000     1.08970841
     0.01209442     0.21553674     0.00000000     1.08207152
     0.01451331     0.25790959     0.00000000     1.07276163
     0.01693219     0.29988368     0.00000000     1.06179312
     0.01935107     0.34139412     0.00000000     1.04918298
     0.02176996     0.38237673     0.00000000     1.03495068
     0.02418884     0.42276814     0.00000000     1.01911823
     0.02660773     0.46250590     0.00000000     1.00171011
     0.02902661     0.50152858     0.00000000     0.98275325
     0.03144550     0.53977585     0.00000000     0.96227693
     0.03386438     0.57718856     0.00000000     0.94031284
     0.03628326     0.61370887     0.00000000     0.91689492
     0.03870215     0.64928032     0.00000000     0.89205937
     0.04112103     0.68384792     0.00000000     0.86584461
     0.04353992     0.71735821     0.00000000     0.83829116
     0.04595880     0.74975939     0.00000000     0.80944162
     0.04837769     0.78100135     0.00000000     0.77934059
     0.05079657     0.81103581     0.00000000     0.74803461
     0.05321546     0.83981631     0.00000000     0.71557210
     0.05563434     0.86729837     0.00000000     0.68200323
     0.05805322     0.89343949     0.00000000     0.64737991
     0.06047211     0.91819925     0.00000000     0.61175567
     0.06289099     0.94153938     0.00000000     0.57518559
     0.06530988     0.96342378     0.00000000     0.53772621
     0.06772876     0.98381863     0.00000000     0.49943544
     0.07014765     1.00269239     0.00000000     0.46037250
     0.07256653     1.02001587     0.00000000     0.42059777
     0.07498541     1.03576230     0.00000000     0.38017275
     0.07740430     1.04990733     0.00000000     0.33915994
     0.07982318     1.06242909     0.00000000     0.29762275
     0.08224207     1.07330821     0.00000000     0.25562540
     0.08466095     1.08252789     0.00000000     0.21323283
     0.08707984     1.09007385     0.00000000     0.17051058
     0.08949872     1.09593445     0.00000000     0.12752470
     0.09191760     1.10010061     0.00000000     0.08434165
     0.09433649     1.10256589     0.00000000     0.04102821
     0.09675537     1.10332649     0.00000000    -0.00234868
     0.09917426     1.10238123     0.00000000    -0.04572193
     0.10159314     1.09973156     0.00000000    -0.08902449
     0.10401203     1.09538159     0.00000000    -0.13218940
     0.10643091     1.08933804     0.00000000    -0.17514994
     0.10884979     1.08161025     0.00000000    -0.21783968
     0.11126868     1.07221018     0.00000000    -0.26019261
     0.11368756     1.06115235     0.00000000    -0.30214326
     0.11610645     1.04845387     0.00000000    -0.34362676
     0.11852533     1.03413436     0.00000000    -0.38457898
     0.12094422     1.01821597     0.00000000    -0.42493660
     0.12336310     1.00072330     0.00000000    -0.46463721
     0.12578198     0.98168341     0.00000000    -0.50361945
     0.12820087     0.96112572     0.00000000    -0.54182304
     0.13061975     0.93908204     0.00000000    -0.57918891
     0.13303864     0.91558643     0.00000000    -0.61565929
     0.13545752     0.89067522     0.00000000    -0.65117779
     0.13787641     0.86438693     0.00000000    -0.68568951
     0.14029529     0.83676221     0.00000000    -0.71914107
     0.14271418     0.80784376     0.00000000    -0.75148076
     0.14513306     0.77767629     0.00000000    -0.78265858
     0.14755194     0.74630645     0.00000000    -0.81262632
     0.14997083     0.71378275     0.00000000    -0.84133766
     0.15238971     0.68015545     0.00000000    -0.86874819
     0.15480860     0.64547656     0.00000000    -0.89481555
     0.15722748     0.60979970     0.00000000    -0.91949943
     0.15964637     0.57318001     0.00000000    -0.94276165
     0.16206525     0.53567413     0.00000000    -0.96456627
     0.16448413     0.49734004     0.00000000    -0.98487956
     0.16690302     0.45823701     0.00000000    -1.00367012
     0.16932190     0.41842549     0.00000000    -1.02090890
     0.17174079     0.37796704     0.00000000    -1.03656924
     0.17415967     0.33692421     0.00000000    -1.05062693
     0.17657856     0.29536046     0.00000000    -1.06306023
     0.17899744     0.25334005     0.00000000    -1.07384993
     0.18141632     0.21092795     0.00000000    -1.08297935
     0.18383521     0.16818974     0.00000000    -1.09043435
     0.18625409     0.12519148     0.00000000    -1.09620343
     0.18867298     0.08199966     0.00000000    -1.10027766
     0.19109186     0.03868106     0.00000000    -1.10265073
     0.19351075    -0.00469734    -0.00000000    -1.10331899
     0.19592963    -0.04806848    -0.00000000    -1.10228140
     0.19834851    -0.09136530    -0.00000000    -1.09953956
     0.20076740    -0.13452086    -0.00000000    -1.09509771
     0.20318628    -0.17746844    -0.00000000    -1.08896273
     0.20560517    -0.22014163    -0.00000000    -1.08114408
     0.20802405    -0.26247446    -0.00000000    -1.07165387
     0.21044294    -0.30440147    -0.00000000    -1.06050677
     0.21286182    -0.34585785    -0.00000000    -1.04772001
     0.21528071    -0.38677949    -0.00000000    -1.03331336
     0.21769959    -0.42710313    -0.00000000    -1.01730909
     0.22011847    -0.46676642    -0.00000000    -0.99973195
     0.22253736    -0.50570804    -0.00000000    -0.98060912
     0.22495624    -0.54386778    -0.00000000    -0.95997016
     0.22737513    -0.58118664    -0.00000000    -0.93784698
     0.22979401    -0.61760692    -0.00000000    -0.91427379
     0.23221290    -0.65307231    -0.00000000    -0.88928703
     0.23463178    -0.68752799    -0.00000000    -0.86292533
     0.23705066    -0.72092067    -0.00000000    -0.83522946
     0.23946955    -0.75319873    -0.00000000    -0.80624224
     0.24188843    -0.78431226    -0.00000000    -0.77600847
     0.24430732    -0.81421316    -0.00000000    -0.74457491
     0.24672620    -0.84285519    -0.00000000    -0.71199016
     0.24914509    -0.87019408    -0.00000000    -0.67830459
     0.25156397    -0.89618756    -0.00000000    -0.64357029
     0.25398285    -0.92079543    -0.00000000    -0.60784096
     0.25640174    -0.94397966    -0.00000000    -0.57117184
     0.25882062    -0.96570438    -0.00000000    -0.53361963
     0.26123951    -0.98593602    -0.00000000    -0.49524238
     0.26365839    -1.00464330    -0.00000000    -0.45609944
     0.26607728    -1.02179729    -0.00000000    -0.41625131
     0.26849616    -1.03737147    -0.00000000    -0.37575962
     0.27091504    -1.05134176    -0.00000000    -0.33468696
     0.27333393    -1.06368656    -0.00000000    -0.29309684
     0.27575281    -1.07438679    -0.00000000    -0.25105356
     0.27817170    -1.08342590    -0.00000000    -0.20862212
     0.28059058    -1.09078991    -0.00000000    -0.16586813
     0.28300947    -1.09646744    -0.00000000    -0.12285769
     0.28542835    -1.10044972    -0.00000000    -0.07965730
     0.28784723    -1.10273058    -0.00000000    -0.03633374
     0.29026612    -1.10330649     0.00000000     0.00704598
     0.29268500    -1.10217658     0.00000000     0.05041482
     0.29510389    -1.09934258     0.00000000     0.09370570
     0.29752277    -1.09480888     0.00000000     0.13685171
     0.29994166    -1.08858248     0.00000000     0.17978613
     0.30236054    -1.08067301     0.00000000     0.22244258
     0.30477943    -1.07109271     0.00000000     0.26475511
     0.30719831    -1.05985638     0.00000000     0.30665830
     0.30961719    -1.04698140     0.00000000     0.34808736
     0.31203608    -1.03248767     0.00000000     0.38897824
     0.31445496    -1.01639760     0.00000000     0.42926772
     0.31687385    -0.99873607     0.00000000     0.46889351
     0.31929273    -0.97953039     0.00000000     0.50779433
     0.32171162    -0.95881024     0.00000000     0.54591005
     0.32413050    -0.93660767     0.00000000     0.58318173
     0.32654938    -0.91295701     0.00000000     0.61955175
     0.32896827    -0.88789481     0.00000000     0.65496387
     0.33138715    -0.86145983     0.00000000     0.68936335
     0.33380604    -0.83369293     0.00000000     0.72269700
     0.33622492    -0.80463706     0.00000000     0.75491328
     0.33864381    -0.77433713     0.00000000     0.78596238
     0.34106269    -0.74283999     0.00000000     0.81579630
     0.34348157    -0.71019435     0.00000000     0.84436891
     0.34590046    -0.67645066     0.00000000     0.87163603
     0.34831934    -0.64166110     0.00000000     0.89755551
     0.35073823    -0.60587947     0.00000000     0.92208727
     0.35315711    -0.56916108     0.00000000     0.94519338
     0.35557600    -0.53156271     0.00000000     0.96683812
     0.35799488    -0.49314248     0.00000000     0.98698802
     0.36041376    -0.45395980     0.00000000     1.00561193
     0.36283265    -0.41407525     0.00000000     1.02268106
     0.36525153    -0.37355050     0.00000000     1.03816901
     0.36767042    -0.33244819     0.00000000     1.05205183
     0.37008930    -0.29083189     0.00000000     1.06430807
     0.37250819    -0.24876592     0.00000000     1.07491878
     0.37492707    -0.20631534     0.00000000     1.08386754
     0.37734595    -0.16354577     0.00000000     1.09114052
     0.37976484    -0.12052334     0.00000000     1.09672649
     0.38218372    -0.07731457     0.00000000     1.10061679
     0.38460261    -0.03398626     0.00000000     1.10280542
     0.38702149     0.00939459     0.00000000     1.10328899
     0.38944038     0.05276092     0.00000000     1.10206676
     0.39185926     0.09604568     0.00000000     1.09914061
     0.39427815     0.13918194     0.00000000     1.09451508
     0.39669703     0.18210301     0.00000000     1.08819730
     0.39911591     0.22474252     0.00000000     1.08019705
     0.40153480     0.26703456     0.00000000     1.07052670
     0.40395368     0.30891374     0.00000000     1.05920119
     0.40637257     0.35031530     0.00000000     1.04623805
     0.40879145     0.39117524     0.00000000     1.03165731
     0.41121034     0.43143037     0.00000000     1.01548151
     0.41362922     0.47101847     0.00000000     0.99773567
     0.41604810     0.50987832     0.00000000     0.97844722
     0.41846699     0.54794985     0.00000000     0.95764598
     0.42088587     0.58517418     0.00000000     0.93536412
     0.42330476     0.62149377     0.00000000     0.91163609
     0.42572364     0.65685247     0.00000000     0.88649856
     0.42814253     0.69119560     0.00000000     0.85999041
     0.43056141     0.72447006     0.00000000     0.83215263
     0.43298029     0.75662442     0.00000000     0.80302824
     0.43539918     0.78760895     0.00000000     0.77266229
     0.43781806     0.81737575     0.00000000     0.74110171
     0.44023695     0.84587880     0.00000000     0.70839531
     0.44265583     0.87307403     0.00000000     0.67459366
     0.44507472     0.89891939     0.00000000     0.63974901
     0.44749360     0.92337492     0.00000000     0.60391524
     0.44991248     0.94640282     0.00000000     0.56714774
     0.45233137     0.96796748     0.00000000     0.52950338
     0.45475025     0.98803555     0.00000000     0.49104035
     0.45716914     1.00657601     0.00000000     0.45181811
     0.45958802     1.02356019     0.00000000     0.41189732
     0.46200691     1.03896184     0.00000000     0.37133968
     0.46442579     1.05275714     0.00000000     0.33020792
     0.46684468     1.06492476     0.00000000     0.28856562
     0.46926356     1.07544589     0.00000000     0.24647716
     0.47168244     1.08430427     0.00000000     0.20400762
     0.47410133     1.09148620     0.00000000     0.16122267
     0.47652021     1.09698056     0.00000000     0.11818845
     0.47893910     1.10077888     0.00000000     0.07497149
     0.48135798     1.10287527     0.00000000     0.03163862
     0.48377687     1.10326650     0.00000000    -0.01174316
     0.48619575     1.10195195     0.00000000    -0.05510679
     0.48861463     1.09893367     0.00000000    -0.09838522
     0.49103352     1.09421632     0.00000000    -0.14151154
     0.49345240     1.08780719     0.00000000    -0.18441906
     0.49587129     1.07971619     0.00000000    -0.22704145
     0.49829017     1.06995583     0.00000000    -0.26931281
     0.50070906     1.05854120     0.00000000    -0.31116778
     0.50312794     1.04548996     0.00000000    -0.35254165
     0.50554682     1.03082227     0.00000000    -0.39337046
     0.50796571     1.01456082     0.00000000    -0.43359107
     0.51038459     0.99673074     0.00000000    -0.47314130
     0.51280348     0.97735962     0.00000000    -0.51196000
     0.51522236     0.95647738     0.00000000    -0.54998716
     0.51764125     0.93411633     0.00000000    -0.58716398
     0.52006013     0.91031104     0.00000000    -0.62343298
     0.52247901     0.88509830     0.00000000    -0.65873808
     0.52489790     0.85851711     0.00000000    -0.69302471
     0.52731678     0.83060855     0.00000000    -0.72623984
     0.52973567     0.80141578     0.00000000    -0.75833212
     0.53215455     0.77098394     0.00000000    -0.78925194
     0.53457344     0.73936007     0.00000000    -0.81895149
     0.53699232     0.70659307     0.00000000    -0.84738486
     0.53941120     0.67273360     0.00000000    -0.87450807
     0.54183009     0.63783401     0.00000000    -0.90027920
     0.54424897     0.60194826     0.00000000    -0.92465840
     0.54666786     0.56513184     0.00000000    -0.94760797
     0.54908674     0.52744165     0.00000000    -0.96909244
     0.55150563     0.48893599     0.00000000    -0.98907859
     0.55392451     0.44967437     0.00000000    -1.00753552
     0.55634340     0.40971751     0.00000000    -1.02443468
     0.55876228     0.36912719     0.00000000    -1.03974996
     0.56118116     0.32796615     0.00000000    -1.05345767
     0.56360005     0.28629804     0.00000000    -1.06553662
     0.56601893     0.24418728     0.00000000    -1.07596814
     0.56843782     0.20169898     0.00000000    -1.08473609
     0.57085670     0.15889884     0.00000000    -1.09182692
     0.57327559     0.11585302     0.00000000    -1.09722967
     0.57569447     0.07262808     0.00000000    -1.10093598
     0.57811335     0.02929084     0.00000000    -1.10294012
     0.58053224    -0.01409168    -0.00000000    -1.10323900
     0.58295112    -0.05745241    -0.00000000    -1.10183215
     0.58537001    -0.10072432    -0.00000000    -1.09872175
     0.58778889    -0.14384049    -0.00000000    -1.09391260
     0.59020778    -0.18673427    -0.00000000    -1.08741215
     0.59262666    -0.22933934    -0.00000000    -1.07923043
     0.59504554    -0.27158983    -0.00000000    -1.06938011
     0.59746443    -0.31342041    -0.00000000    -1.05787642
     0.59988331    -0.35476640    -0.00000000    -1.04473713
     0.60230220    -0.39556389    -0.00000000    -1.02998256
     0.60472108    -0.43574980    -0.00000000    -1.01363552
     0.60713997    -0.47526199    -0.00000000    -0.99572130
     0.60955885    -0.51403937    -0.00000000    -0.97626758
     0.61197773    -0.55202199    -0.00000000    -0.95530445
     0.61439662    -0.58915112    -0.00000000    -0.93286431
     0.61681550    -0.62536936    -0.00000000    -0.90898186
     0.61923439    -0.66062071    -0.00000000    -0.88369403
     0.62165327    -0.69485068    -0.00000000    -0.85703991
     0.62407216    -0.72800632    -0.00000000    -0.82906071
     0.62649104    -0.76003639    -0.00000000    -0.79979969
     0.62890992    -0.79089136    -0.00000000    -0.76930210
     0.63132881    -0.82052353    -0.00000000    -0.73761508
     0.63374769    -0.84888707    -0.00000000    -0.70478763
     0.63616658    -0.87593815    -0.00000000    -0.67087050
     0.63858546    -0.90163493    -0.00000000    -0.63591613
     0.64100435    -0.92593768    -0.00000000    -0.59997856
     0.64342323    -0.94880883    -0.00000000    -0.56311337
     0.64584212    -0.97021302    -0.00000000    -0.52537753
     0.64826100    -0.99011716    -0.00000000    -0.48682941
     0.65067988    -1.00849047    -0.00000000    -0.44752860
     0.65309877    -1.02530454    -0.00000000    -0.40753585
     0.65551765    -1.04053337    -0.00000000    -0.36691302
     0.65793654    -1.05415343    -0.00000000    -0.32572289
     0.66035542    -1.06614366    -0.00000000    -0.28402917
     0.66277431    -1.07648551    -0.00000000    -0.24189630
     0.66519319    -1.08516299    -0.00000000    -0.19938943
     0.66761207    -1.09216270    -0.00000000    -0.15657429
     0.67003096    -1.09747380    -0.00000000    -0.11351706
     0.67244984    -1.10108809    -0.00000000    -0.07028433
     0.67486873    -1.10299997    -0.00000000    -0.02694293
     0.67728761    -1.10320650     0.00000000     0.01644013
     0.67970650    -1.10170735     0.00000000     0.05979777
     0.68212538    -1.09850484     0.00000000     0.10306296
     0.68454426    -1.09360393     0.00000000     0.14616880
     0.68696315    -1.08701218     0.00000000     0.18904864
     0.68938203    -1.07873979     0.00000000     0.23163620
     0.69180092    -1.06879955     0.00000000     0.27386562
     0.69421980    -1.05720684     0.00000000     0.31567162
     0.69663869    -1.04397956     0.00000000     0.35698955
     0.69905757    -1.02913818     0.00000000     0.39775554
     0.70147645    -1.01270564     0.00000000     0.43790655
     0.70389534    -0.99470735     0.00000000     0.47738052
     0.70631422    -0.97517113     0.00000000     0.51611640
     0.70873311    -0.95412719     0.00000000     0.55405431
     0.71115199    -0.93160806     0.00000000     0.59113559
     0.71357088    -0.90764857     0.00000000     0.62730291
     0.71598976    -0.88228575     0.00000000     0.66250035
     0.71840864    -0.85555882     0.00000000     0.69667350
     0.72082753    -0.82750911     0.00000000     0.72976951
     0.72324641    -0.79817998     0.00000000     0.76173722
     0.72566530    -0.76761677     0.00000000     0.79252719
     0.72808418    -0.73586675     0.00000000     0.82209184
     0.73050307    -0.70297899     0.00000000     0.85038544
     0.73292195    -0.66900435     0.00000000     0.87736426
     0.73534084    -0.63399536     0.00000000     0.90298657
     0.73775972    -0.59800614     0.00000000     0.92721277
     0.74017860    -0.56109234     0.00000000     0.95000539
     0.74259749    -0.52331103     0.00000000     0.97132921
     0.74501637    -0.48472063     0.00000000     0.99115124
     0.74743526    -0.44538079     0.00000000     1.00944084
     0.74985414    -0.40535235     0.00000000     1.02616974
     0.75227303    -0.36469719     0.00000000     1.04131207
     0.75469191    -0.32347816     0.00000000     1.05484442
     0.75711079    -0.28175900     0.00000000     1.06674586
     0.75952968    -0.23960422     0.00000000     1.07699800
     0.76194856    -0.19707898     0.00000000     1.08558498
     0.76436745    -0.15424903     0.00000000     1.09249352
     0.76678633    -0.11118060     0.00000000     1.09771296
     0.76920522    -0.06794027     0.00000000     1.10123521
     0.77162410    -0.02459489     0.00000000     1.10305483
     0.77404298     0.01878851     0.00000000     1.10316901
     0.77646187     0.06214286     0.00000000     1.10157756
     0.77888075     0.10540113     0.00000000     1.09828296
     0.78129964     0.14849644     0.00000000     1.09329030
     0.78371852     0.19136216     0.00000000     1.08660728
     0.78613741     0.23393201     0.00000000     1.07824426
