#     time (fs)  |  E_x (eV/ang)  | E_y (eV/ang) | E_z (eV/ang)
     0.00000000     0.00000000     0.00000000     0.00000000
     0.00241888     0.06542294     0.00000000     0.00000000
     0.00483777     0.13072136     0.00000000     0.00000000
     0.00725665     0.19577097     0.00000000     0.00000000
     0.00967554     0.26044797     0.00000000     0.00000000
     0.01209442     0.32462925     0.00000000     0.00000000
     0.01451331     0.38819266     0.00000000     0.00000000
     0.01693219     0.45101722     0.00000000     0.00000000
     0.01935107     0.51298335     0.00000000     0.00000000
     0.02176996     0.57397311     0.00000000     0.00000000
     0.02418884     0.63387041     0.00000000     0.00000000
     0.02660773     0.69256126     0.00000000     0.00000000
     0.02902661     0.74993395     0.00000000     0.00000000
     0.03144550     0.80587927     0.00000000     0.00000000
     0.03386438     0.86029075     0.00000000     0.00000000
     0.03628326     0.91306483     0.00000000     0.00000000
     0.03870215     0.96410105     0.00000000     0.00000000
     0.04112103     1.01330228     0.00000000     0.00000000
     0.04353992     1.06057488     0.00000000     0.00000000
     0.04595880     1.10582886     0.00000000     0.00000000
     0.04837769     1.14897811     0.00000000     0.00000000
     0.05079657     1.18994048     0.00000000     0.00000000
     0.05321546     1.22863802     0.00000000     0.00000000
     0.05563434     1.26499707     0.00000000     0.00000000
     0.05805322     1.29894843     0.00000000     0.00000000
     0.06047211     1.33042748     0.00000000     0.00000000
     0.06289099     1.35937430     0.00000000     0.00000000
     0.06530988     1.38573381     0.00000000     0.00000000
     0.06772876     1.40945582     0.00000000     0.00000000
     0.07014765     1.43049519     0.00000000     0.00000000
     0.07256653     1.44881188     0.00000000     0.00000000
     0.07498541     1.46437101     0.00000000     0.00000000
     0.07740430     1.47714299     0.00000000     0.00000000
     0.07982318     1.48710349     0.00000000     0.00000000
     0.08224207     1.49423356     0.00000000     0.00000000
     0.08466095     1.49851964     0.00000000     0.00000000
     0.08707984     1.49995355     0.00000000     0.00000000
     0.08949872     1.49853258     0.00000000     0.00000000
     0.09191760     1.49425942     0.00000000     0.00000000
     0.09433649     1.48714222     0.00000000     0.00000000
     0.09675537     1.47719451     0.00000000     0.00000000
     0.09917426     1.46443523     0.00000000     0.00000000
     0.10159314     1.44888867     0.00000000     0.00000000
     0.10401203     1.43058441     0.00000000     0.00000000
     0.10643091     1.40955730     0.00000000     0.00000000
     0.10884979     1.38584735     0.00000000     0.00000000
     0.11126868     1.35949970     0.00000000     0.00000000
     0.11368756     1.33056448     0.00000000     0.00000000
     0.11610645     1.29909678     0.00000000     0.00000000
     0.11852533     1.26515649     0.00000000     0.00000000
     0.12094422     1.22880820     0.00000000     0.00000000
     0.12336310     1.19012110     0.00000000     0.00000000
     0.12578198     1.14916883     0.00000000     0.00000000
     0.12820087     1.10602932     0.00000000     0.00000000
     0.13061975     1.06078468     0.00000000     0.00000000
     0.13303864     1.01352104     0.00000000     0.00000000
     0.13545752     0.96432834     0.00000000     0.00000000
     0.13787641     0.91330022     0.00000000     0.00000000
     0.14029529     0.86053381     0.00000000     0.00000000
     0.14271418     0.80612952     0.00000000     0.00000000
     0.14513306     0.75019091     0.00000000     0.00000000
     0.14755194     0.69282445     0.00000000     0.00000000
     0.14997083     0.63413933     0.00000000     0.00000000
     0.15238971     0.57424724     0.00000000     0.00000000
     0.15480860     0.51326217     0.00000000     0.00000000
     0.15722748     0.45130020     0.00000000     0.00000000
     0.15964637     0.38847927     0.00000000     0.00000000
     0.16206525     0.32491894     0.00000000     0.00000000
     0.16448413     0.26074018     0.00000000     0.00000000
     0.16690302     0.19606515     0.00000000     0.00000000
     0.16932190     0.13101695     0.00000000     0.00000000
     0.17174079     0.06571938     0.00000000     0.00000000
     0.17415967     0.00029672     0.00000000     0.00000000
     0.17657856    -0.06512649    -0.00000000    -0.00000000
     0.17899744    -0.13042576    -0.00000000    -0.00000000
     0.18141632    -0.19547678    -0.00000000    -0.00000000
     0.18383521    -0.26015575    -0.00000000    -0.00000000
     0.18625409    -0.32433955    -0.00000000    -0.00000000
     0.18867298    -0.38790604    -0.00000000    -0.00000000
     0.19109186    -0.45073422    -0.00000000    -0.00000000
     0.19351075    -0.51270451    -0.00000000    -0.00000000
     0.19592963    -0.57369896    -0.00000000    -0.00000000
     0.19834851    -0.63360147    -0.00000000    -0.00000000
     0.20076740    -0.69229805    -0.00000000    -0.00000000
     0.20318628    -0.74967696    -0.00000000    -0.00000000
     0.20560517    -0.80562900    -0.00000000    -0.00000000
     0.20802405    -0.86004767    -0.00000000    -0.00000000
     0.21044294    -0.91282939    -0.00000000    -0.00000000
     0.21286182    -0.96387372    -0.00000000    -0.00000000
     0.21528071    -1.01308348    -0.00000000    -0.00000000
     0.21769959    -1.06036503    -0.00000000    -0.00000000
     0.22011847    -1.10562837    -0.00000000    -0.00000000
     0.22253736    -1.14878734    -0.00000000    -0.00000000
     0.22495624    -1.18975981    -0.00000000    -0.00000000
     0.22737513    -1.22846778    -0.00000000    -0.00000000
     0.22979401    -1.26483760    -0.00000000    -0.00000000
     0.23221290    -1.29880002    -0.00000000    -0.00000000
     0.23463178    -1.33029042    -0.00000000    -0.00000000
     0.23705066    -1.35924886    -0.00000000    -0.00000000
     0.23946955    -1.38562021    -0.00000000    -0.00000000
     0.24188843    -1.40935428    -0.00000000    -0.00000000
     0.24430732    -1.43040591    -0.00000000    -0.00000000
     0.24672620    -1.44873503    -0.00000000    -0.00000000
     0.24914509    -1.46430674    -0.00000000    -0.00000000
     0.25156397    -1.47709141    -0.00000000    -0.00000000
     0.25398285    -1.48706470    -0.00000000    -0.00000000
     0.25640174    -1.49420764    -0.00000000    -0.00000000
     0.25882062    -1.49850663    -0.00000000    -0.00000000
     0.26123951    -1.49995349    -0.00000000    -0.00000000
     0.26365839    -1.49854546     0.00000000     0.00000000
     0.26607728    -1.49428522     0.00000000     0.00000000
     0.26849616    -1.48718089     0.00000000     0.00000000
     0.27091504    -1.47724597     0.00000000     0.00000000
     0.27333393    -1.46449939     0.00000000     0.00000000
     0.27575281    -1.44896541     0.00000000     0.00000000
     0.27817170    -1.43067358     0.00000000     0.00000000
     0.28059058    -1.40965872     0.00000000     0.00000000
     0.28300947    -1.38596084     0.00000000     0.00000000
     0.28542835    -1.35962504     0.00000000     0.00000000
     0.28784723    -1.33070143     0.00000000     0.00000000
     0.29026612    -1.29924509     0.00000000     0.00000000
     0.29268500    -1.26531586     0.00000000     0.00000000
     0.29510389    -1.22897834     0.00000000     0.00000000
     0.29752277    -1.19030168     0.00000000     0.00000000
     0.29994166    -1.14935950     0.00000000     0.00000000
     0.30236054    -1.10622973     0.00000000     0.00000000
     0.30477943    -1.06099445     0.00000000     0.00000000
     0.30719831    -1.01373976     0.00000000     0.00000000
     0.30961719    -0.96455560     0.00000000     0.00000000
     0.31203608    -0.91353559     0.00000000     0.00000000
     0.31445496    -0.86077682     0.00000000     0.00000000
     0.31687385    -0.80637973     0.00000000     0.00000000
     0.31929273    -0.75044784     0.00000000     0.00000000
     0.32171162    -0.69308761     0.00000000     0.00000000
     0.32413050    -0.63440822     0.00000000     0.00000000
     0.32654938    -0.57452134     0.00000000     0.00000000
     0.32896827    -0.51354097     0.00000000     0.00000000
     0.33138715    -0.45158317     0.00000000     0.00000000
     0.33380604    -0.38876586     0.00000000     0.00000000
     0.33622492    -0.32520861     0.00000000     0.00000000
     0.33864381    -0.26103238     0.00000000     0.00000000
     0.34106269    -0.19635933     0.00000000     0.00000000
     0.34348157    -0.13131254     0.00000000     0.00000000
     0.34590046    -0.06601582     0.00000000     0.00000000
     0.34831934    -0.00059345     0.00000000     0.00000000
     0.35073823     0.06483005     0.00000000     0.00000000
     0.35315711     0.13013015     0.00000000     0.00000000
     0.35557600     0.19518258     0.00000000     0.00000000
     0.35799488     0.25986351     0.00000000     0.00000000
     0.36041376     0.32404984     0.00000000     0.00000000
     0.36283265     0.38761940     0.00000000     0.00000000
     0.36525153     0.45045120     0.00000000     0.00000000
     0.36767042     0.51242565     0.00000000     0.00000000
     0.37008930     0.57342478     0.00000000     0.00000000
     0.37250819     0.63333251     0.00000000     0.00000000
     0.37492707     0.69203481     0.00000000     0.00000000
     0.37734595     0.74941994     0.00000000     0.00000000
     0.37976484     0.80537869     0.00000000     0.00000000
     0.38218372     0.85980455     0.00000000     0.00000000
     0.38460261     0.91259393     0.00000000     0.00000000
     0.38702149     0.96364635     0.00000000     0.00000000
     0.38944038     1.01286465     0.00000000     0.00000000
     0.39185926     1.06015514     0.00000000     0.00000000
     0.39427815     1.10542782     0.00000000     0.00000000
     0.39669703     1.14859653     0.00000000     0.00000000
     0.39911591     1.18957909     0.00000000     0.00000000
     0.40153480     1.22829750     0.00000000     0.00000000
     0.40395368     1.26467808     0.00000000     0.00000000
     0.40637257     1.29865157     0.00000000     0.00000000
     0.40879145     1.33015331     0.00000000     0.00000000
     0.41121034     1.35912336     0.00000000     0.00000000
     0.41362922     1.38550655     0.00000000     0.00000000
     0.41604810     1.40925269     0.00000000     0.00000000
     0.41846699     1.43031658     0.00000000     0.00000000
     0.42088587     1.44865812     0.00000000     0.00000000
     0.42330476     1.46424240     0.00000000     0.00000000
     0.42572364     1.47703977     0.00000000     0.00000000
     0.42814253     1.48702586     0.00000000     0.00000000
     0.43056141     1.49418167     0.00000000     0.00000000
     0.43298029     1.49849358     0.00000000     0.00000000
     0.43539918     1.49995337     0.00000000     0.00000000
     0.43781806     1.49855829     0.00000000     0.00000000
     0.44023695     1.49431097     0.00000000     0.00000000
     0.44265583     1.48721950     0.00000000     0.00000000
     0.44507472     1.47729738     0.00000000     0.00000000
     0.44749360     1.46456350     0.00000000     0.00000000
     0.44991248     1.44904209     0.00000000     0.00000000
     0.45233137     1.43076269     0.00000000     0.00000000
     0.45475025     1.40976009     0.00000000     0.00000000
     0.45716914     1.38607428     0.00000000     0.00000000
     0.45958802     1.35975032     0.00000000     0.00000000
     0.46200691     1.33083833     0.00000000     0.00000000
     0.46442579     1.29939334     0.00000000     0.00000000
     0.46684468     1.26547518     0.00000000     0.00000000
     0.46926356     1.22914843     0.00000000     0.00000000
     0.47168244     1.19048221     0.00000000     0.00000000
     0.47410133     1.14955013     0.00000000     0.00000000
     0.47652021     1.10643009     0.00000000     0.00000000
     0.47893910     1.06120417     0.00000000     0.00000000
     0.48135798     1.01395844     0.00000000     0.00000000
     0.48377687     0.96478282     0.00000000     0.00000000
     0.48619575     0.91377091     0.00000000     0.00000000
     0.48861463     0.86101981     0.00000000     0.00000000
     0.49103352     0.80662991     0.00000000     0.00000000
     0.49345240     0.75070475     0.00000000     0.00000000
     0.49587129     0.69335075     0.00000000     0.00000000
     0.49829017     0.63467708     0.00000000     0.00000000
     0.50070906     0.57479543     0.00000000     0.00000000
     0.50312794     0.51381976     0.00000000     0.00000000
     0.50554682     0.45186612     0.00000000     0.00000000
     0.50796571     0.38905244     0.00000000     0.00000000
     0.51038459     0.32549827     0.00000000     0.00000000
     0.51280348     0.26132457     0.00000000     0.00000000
     0.51522236     0.19665349     0.00000000     0.00000000
     0.51764125     0.13160812     0.00000000     0.00000000
     0.52006013     0.06631225     0.00000000     0.00000000
     0.52247901     0.00089017     0.00000000     0.00000000
     0.52489790    -0.06453360    -0.00000000    -0.00000000
     0.52731678    -0.12983455    -0.00000000    -0.00000000
     0.52973567    -0.19488838    -0.00000000    -0.00000000
     0.53215455    -0.25957127    -0.00000000    -0.00000000
     0.53457344    -0.32376012    -0.00000000    -0.00000000
     0.53699232    -0.38733275    -0.00000000    -0.00000000
     0.53941120    -0.45016816    -0.00000000    -0.00000000
     0.54183009    -0.51214676    -0.00000000    -0.00000000
     0.54424897    -0.57315059    -0.00000000    -0.00000000
     0.54666786    -0.63306352    -0.00000000    -0.00000000
     0.54908674    -0.69177154    -0.00000000    -0.00000000
     0.55150563    -0.74916289    -0.00000000    -0.00000000
     0.55392451    -0.80512835    -0.00000000    -0.00000000
     0.55634340    -0.85956139    -0.00000000    -0.00000000
     0.55876228    -0.91235842    -0.00000000    -0.00000000
     0.56118116    -0.96341894    -0.00000000    -0.00000000
     0.56360005    -1.01264577    -0.00000000    -0.00000000
     0.56601893    -1.05994521    -0.00000000    -0.00000000
     0.56843782    -1.10522724    -0.00000000    -0.00000000
     0.57085670    -1.14840567    -0.00000000    -0.00000000
     0.57327559    -1.18939832    -0.00000000    -0.00000000
     0.57569447    -1.22812717    -0.00000000    -0.00000000
     0.57811335    -1.26451851    -0.00000000    -0.00000000
     0.58053224    -1.29850306    -0.00000000    -0.00000000
     0.58295112    -1.33001615    -0.00000000    -0.00000000
     0.58537001    -1.35899780    -0.00000000    -0.00000000
     0.58778889    -1.38539285    -0.00000000    -0.00000000
     0.59020778    -1.40915105    -0.00000000    -0.00000000
     0.59262666    -1.43022719    -0.00000000    -0.00000000
     0.59504554    -1.44858116    -0.00000000    -0.00000000
     0.59746443    -1.46417801    -0.00000000    -0.00000000
     0.59988331    -1.47698807    -0.00000000    -0.00000000
     0.60230220    -1.48698696    -0.00000000    -0.00000000
     0.60472108    -1.49415563    -0.00000000    -0.00000000
     0.60713997    -1.49848046    -0.00000000    -0.00000000
     0.60955885    -1.49995320    -0.00000000    -0.00000000
     0.61197773    -1.49857105     0.00000000     0.00000000
     0.61439662    -1.49433665     0.00000000     0.00000000
     0.61681550    -1.48725805     0.00000000     0.00000000
     0.61923439    -1.47734873     0.00000000     0.00000000
     0.62165327    -1.46462754     0.00000000     0.00000000
     0.62407216    -1.44911871     0.00000000     0.00000000
     0.62649104    -1.43085174     0.00000000     0.00000000
     0.62890992    -1.40986141     0.00000000     0.00000000
     0.63132881    -1.38618766     0.00000000     0.00000000
     0.63374769    -1.35987556     0.00000000     0.00000000
     0.63616658    -1.33097518     0.00000000     0.00000000
     0.63858546    -1.29954154     0.00000000     0.00000000
     0.64100435    -1.26563446     0.00000000     0.00000000
     0.64342323    -1.22931847     0.00000000     0.00000000
     0.64584212    -1.19066270     0.00000000     0.00000000
     0.64826100    -1.14974072     0.00000000     0.00000000
     0.65067988    -1.10663042     0.00000000     0.00000000
     0.65309877    -1.06141385     0.00000000     0.00000000
     0.65551765    -1.01417707     0.00000000     0.00000000
     0.65793654    -0.96501000     0.00000000     0.00000000
     0.66035542    -0.91400620     0.00000000     0.00000000
     0.66277431    -0.86126276     0.00000000     0.00000000
     0.66519319    -0.80688006     0.00000000     0.00000000
     0.66761207    -0.75096162     0.00000000     0.00000000
     0.67003096    -0.69361386     0.00000000     0.00000000
     0.67244984    -0.63494592     0.00000000     0.00000000
     0.67486873    -0.57506949     0.00000000     0.00000000
     0.67728761    -0.51409852     0.00000000     0.00000000
     0.67970650    -0.45214905     0.00000000     0.00000000
     0.68212538    -0.38933900     0.00000000     0.00000000
     0.68454426    -0.32578792     0.00000000     0.00000000
     0.68696315    -0.26161675     0.00000000     0.00000000
     0.68938203    -0.19694765     0.00000000     0.00000000
     0.69180092    -0.13190370     0.00000000     0.00000000
     0.69421980    -0.06660869     0.00000000     0.00000000
     0.69663869    -0.00118690     0.00000000     0.00000000
     0.69905757     0.06423715     0.00000000     0.00000000
     0.70147645     0.12953893     0.00000000     0.00000000
     0.70389534     0.19459416     0.00000000     0.00000000
     0.70631422     0.25927902     0.00000000     0.00000000
     0.70873311     0.32347038     0.00000000     0.00000000
     0.71115199     0.38704608     0.00000000     0.00000000
     0.71357088     0.44988511     0.00000000     0.00000000
     0.71598976     0.51186786     0.00000000     0.00000000
     0.71840864     0.57287637     0.00000000     0.00000000
     0.72082753     0.63279451     0.00000000     0.00000000
     0.72324641     0.69150824     0.00000000     0.00000000
     0.72566530     0.74890581     0.00000000     0.00000000
     0.72808418     0.80487798     0.00000000     0.00000000
     0.73050307     0.85931821     0.00000000     0.00000000
     0.73292195     0.91212288     0.00000000     0.00000000
     0.73534084     0.96319150     0.00000000     0.00000000
     0.73775972     1.01242685     0.00000000     0.00000000
     0.74017860     1.05973524     0.00000000     0.00000000
     0.74259749     1.10502661     0.00000000     0.00000000
     0.74501637     1.14821477     0.00000000     0.00000000
     0.74743526     1.18921751     0.00000000     0.00000000
     0.74985414     1.22795680     0.00000000     0.00000000
     0.75227303     1.26435889     0.00000000     0.00000000
     0.75469191     1.29835451     0.00000000     0.00000000
     0.75711079     1.32987894     0.00000000     0.00000000
     0.75952968     1.35887220     0.00000000     0.00000000
     0.76194856     1.38527908     0.00000000     0.00000000
     0.76436745     1.40904935     0.00000000     0.00000000
     0.76678633     1.43013774     0.00000000     0.00000000
     0.76920522     1.44850414     0.00000000     0.00000000
     0.77162410     1.46411356     0.00000000     0.00000000
     0.77404298     1.47693632     0.00000000     0.00000000
     0.77646187     1.48694800     0.00000000     0.00000000
     0.77888075     1.49412954     0.00000000     0.00000000
     0.78129964     1.49846728     0.00000000     0.00000000
     0.78371852     1.49995296     0.00000000     0.00000000
     0.78613741     1.49858376     0.00000000     0.00000000
