#           time (fs)    |     mu_x (e.angstrom)   |     mu_y (e.angstrom)   |     mu_z (e.angstrom)   |
        0.000000000000000       -0.000000000000000       -0.000000000000000        0.000000000000000
        0.002418884326505       -0.000000002118899        0.000000001689601        0.000031652691487
        0.004837768653010       -0.000000008475347        0.000000006758214        0.000063300701896
        0.007256652979515       -0.000000018966431        0.000000015123764        0.000094435693508
        0.009675537306020       -0.000000033624117        0.000000026811760        0.000125559155426
        0.012094421632525       -0.000000052107344        0.000000041550216        0.000155659712981
        0.014513305959030       -0.000000074612488        0.000000059495754        0.000185735219995
        0.016932190285535       -0.000000100431953        0.000000080084104        0.000214287709552
        0.019351074612040       -0.000000130052826        0.000000103703712        0.000242795343167
        0.021769958938545       -0.000000162284024        0.000000129404764        0.000269297923738
        0.024188843265050       -0.000000198019723        0.000000157900333        0.000295730150778
        0.026607727591555       -0.000000235483832        0.000000187774110        0.000319701483713
        0.029026611918060       -0.000000276080197        0.000000220145589        0.000343572057863
        0.031445496244565       -0.000000317365254        0.000000253066210        0.000364559885412
        0.033864380571070       -0.000000361337786        0.000000288129880        0.000385412601109
        0.036283264897575       -0.000000404826509        0.000000322807744        0.000403002046343
        0.038702149224080       -0.000000450489980        0.000000359219827        0.000420419193257
        0.041121033550585       -0.000000494393790        0.000000394228740        0.000434240635761
        0.043539917877090       -0.000000539898083        0.000000430513972        0.000447851004671
        0.045958802203595       -0.000000582296756        0.000000464322769        0.000457587391051
        0.048377686530100       -0.000000625668304        0.000000498907442        0.000467073687068
        0.050796570856605       -0.000000664554549        0.000000529915517        0.000472467142435
        0.053215455183110       -0.000000703742624        0.000000561164390        0.000477572669104
        0.055634339509615       -0.000000737070704        0.000000587740477        0.000478430285099
        0.058053223836120       -0.000000769997658        0.000000613996829        0.000478964772924
        0.060472108162625       -0.000000795735137        0.000000634520252        0.000475163459459
        0.062890992489130       -0.000000820349582        0.000000654148292        0.000471007924612
        0.065309876815635       -0.000000836531097        0.000000667051847        0.000462498226168
        0.067728761142140       -0.000000850862944        0.000000678480594        0.000453608759429
        0.070147645468645       -0.000000855644896        0.000000682294156        0.000440417552214
        0.072566529795150       -0.000000857861049        0.000000684061855        0.000426827954363
        0.074985414121655       -0.000000849576003        0.000000677455761        0.000409059957700
        0.077404298448160       -0.000000838035510        0.000000668253859        0.000390883155263
        0.079823182774665       -0.000000815245100        0.000000650081094        0.000368721208983
        0.082242067101170       -0.000000788552486        0.000000628796774        0.000346149403373
        0.084660951427675       -0.000000750097581        0.000000598132976        0.000319853482416
        0.087079835754180       -0.000000707153130        0.000000563889251        0.000293157005533
        0.089498720080685       -0.000000652200061        0.000000520069584        0.000263061963134
        0.091917604407190       -0.000000592245799        0.000000472261976        0.000232586833338
        0.094336488733695       -0.000000520327483        0.000000414913918        0.000199098884750
        0.096755373060200       -0.000000442987703        0.000000353242773        0.000165263078251
        0.099174257386705       -0.000000354038562        0.000000282313977        0.000128855057639
        0.101593141713210       -0.000000259353772        0.000000206811545        0.000092143531565
        0.104012026039715       -0.000000153737459        0.000000122591946        0.000053348975068
        0.106430910366220       -0.000000042190771        0.000000033643428        0.000014307499357
        0.108849794692725        0.000000079280202       -0.000000063219098       -0.000026286372830
        0.111268679019230        0.000000206745128       -0.000000164861240       -0.000067058497372
        0.113687563345735        0.000000342798586       -0.000000273352256       -0.000108818808184
        0.116106447672240        0.000000484768775       -0.000000386561302       -0.000150677049060
        0.118525331998745        0.000000633671506       -0.000000505298716       -0.000192934191631
        0.120944216325250        0.000000788265633       -0.000000628574459       -0.000235197986601
        0.123363100651755        0.000000947831857       -0.000000755815277       -0.000277255325715
        0.125781984978260        0.000001112711339       -0.000000887292869       -0.000319218056734
        0.128200869304765        0.000001280321256       -0.000001020947987       -0.000360362264860
        0.130619753631270        0.000001452711668       -0.000001158415019       -0.000401301858878
        0.133038637957775        0.000001625340118       -0.000001296072082       -0.000440813734711
        0.135457522284280        0.000001802062914       -0.000001436993882       -0.000480003733976
        0.137876406610785        0.000001976317995       -0.000001575948084       -0.000517169341475
        0.140295290937290        0.000002153832324       -0.000001717501071       -0.000553890276125
        0.142714175263795        0.000002326003597       -0.000001854793598       -0.000588012234498
        0.145133059590300        0.000002500457797       -0.000001993906347       -0.000621563122957
        0.147551943916805        0.000002666573503       -0.000002126370011       -0.000651971873165
        0.149970828243310        0.000002833865631       -0.000002259771529       -0.000681681671259
        0.152389712569815        0.000002989758164       -0.000002384082982       -0.000707746542404
        0.154808596896320        0.000003145604744       -0.000002508357530       -0.000732985360315
        0.157227481222825        0.000003286983422       -0.000002621095295       -0.000754125259890
        0.159646365549330        0.000003426995376       -0.000002732742941       -0.000774315167147
        0.162065249875835        0.000003549525383       -0.000002830450364       -0.000790008722469
        0.164484134202340        0.000003669289966       -0.000002925952322       -0.000804633965094
        0.166903018528845        0.000003768676174       -0.000003005204415       -0.000814428949412
        0.169321902855350        0.000003863843551       -0.000003081092079       -0.000823045410111
        0.171740787181855        0.000003935917808       -0.000003138565119       -0.000826567295704
        0.174159671508360        0.000004002290790       -0.000003191491615       -0.000828811037498
        0.176578555834865        0.000004043101128       -0.000003224034279       -0.000825770529509
        0.178997440161370        0.000004076726461       -0.000003250847261       -0.000821365275349
        0.181416324487875        0.000004082626599       -0.000003255551987       -0.000811564693916
        0.183835208814380        0.000004079886135       -0.000003253366327       -0.000800328109412
        0.186254093140885        0.000004047623598       -0.000003227639578       -0.000783666503768
        0.188672977467390        0.000004005323599       -0.000003193908574       -0.000765515167010
        0.191091861793895        0.000003932124723       -0.000003135538618       -0.000741992063239
        0.193510746120400        0.000003847581546       -0.000003068122314       -0.000716945024544
        0.195929630446905        0.000003731231668       -0.000002975343156       -0.000686662728513
        0.198348514773410        0.000003602352078       -0.000002872572381       -0.000654843583489
        0.200767399099915        0.000003441269215       -0.000002744122523       -0.000618007981670
        0.203186283426420        0.000003266623617       -0.000002604857282       -0.000579645402980
        0.205605167752925        0.000003059924038       -0.000002440031999       -0.000536565226238
        0.208024052079430        0.000002838810992       -0.000002263712924       -0.000491991922513
        0.210442936405935        0.000002586365138       -0.000002062408867       -0.000443076461006
        0.212861820732440        0.000002318865642       -0.000001849100502       -0.000392726555148
        0.215280705058945        0.000002021343027       -0.000001611851500       -0.000338481836053
        0.217699589385450        0.000001708363169       -0.000001362276319       -0.000282886679317
        0.220118473711955        0.000001367265012       -0.000001090279415       -0.000223910142632
        0.222537358038460        0.000001010565777       -0.000000805841601       -0.000163692605009
        0.224956242364965        0.000000628244324       -0.000000500972462       -0.000100666335958
        0.227375126691470        0.000000230457537       -0.000000183770631       -0.000036533637137
        0.229794011017975       -0.000000189878781        0.000000151412323        0.000029783763718
        0.232212895344480       -0.000000625249191        0.000000498584103        0.000097048595560
        0.234631779670985       -0.000001079545370        0.000000860847355        0.000165831401869
        0.237050663997490       -0.000001548137347        0.000001234510704        0.000235379334379
        0.239469548323995       -0.000002031516569        0.000001619965373        0.000305745220404
        0.241888432650500       -0.000002528139467        0.000002015981139        0.000376672155006
        0.244307316977005       -0.000003034943121        0.000002420114887        0.000447693717623
        0.246726201303510       -0.000003553622842        0.000002833719135        0.000519052413113
        0.249145085630015       -0.000004077465651        0.000003251440126        0.000589769531708
        0.251563969956520       -0.000004611505158        0.000003677292394        0.000660582349056
        0.253982854283025       -0.000005145345000        0.000004102984968        0.000730015211413
        0.256401738609530       -0.000005687399704        0.000004535228386        0.000799287501275
        0.258820622936035       -0.000006223621425        0.000004962819902        0.000866450111897
        0.261239507262540       -0.000006765788667        0.000005395152552        0.000933184054882
        0.263658391589045       -0.000007296300944        0.000005818190642        0.000997098033195
        0.266077275915550       -0.000007830222518        0.000006243947333        0.001060306734321
        0.268496160242055       -0.000008346566563        0.000006655686598        0.001120015204092
        0.270915044568560       -0.000008863542991        0.000007067930002        0.001178736837165
        0.273333928895065       -0.000009357011650        0.000007461427006        0.001233318205338
        0.275752813221570       -0.000009848126652        0.000007853046939        0.001286630000406
        0.278171697548075       -0.000010309892249        0.000008221262175        0.001335211423411
        0.280590581874580       -0.000010766145661        0.000008585081608        0.001382243290934
        0.283009466201085       -0.000011187394715        0.000008920986946        0.001424013629515
        0.285428350527590       -0.000011599841897        0.000009249873194        0.001463961218570
        0.287847234854095       -0.000011971914709        0.000009546563210        0.001498183288084
        0.290266119180600       -0.000012331810327        0.000009833542604        0.001530320282649
        0.292685003507105       -0.000012646343260        0.000010084348054        0.001556342214763
        0.295103887833610       -0.000012945287198        0.000010322722311        0.001580031681893
        0.297522772160115       -0.000013194355404        0.000010521323955        0.001597297225293
        0.299941656486620       -0.000013424438459        0.000010704786363        0.001612001841616
        0.302360540813125       -0.000013600696723        0.000010845327279        0.001620059443785
        0.304779425139630       -0.000013754643694        0.000010968076801        0.001625350442074
        0.307198309466135       -0.000013851463034        0.000011045271312        0.001623860971019
        0.309617193792640       -0.000013922770771        0.000011102122661        0.001619425666370
        0.312036078119145       -0.000013934368464        0.000011111360006        0.001608168650248
        0.314454962445650       -0.000013917436503        0.000011097847802        0.001593816425394
        0.316873846772155       -0.000013838997236        0.000011035288728        0.001572694708947
        0.319292731098660       -0.000013729248673        0.000010947763863        0.001548361360144
        0.321711615425165       -0.000013557034624        0.000010810428379        0.001517404099449
        0.324130499751670       -0.000013351025015        0.000010646144830        0.001483154467839
        0.326549384078175       -0.000013082472803        0.000010431989490        0.001442518408719
        0.328968268404680       -0.000012777985001        0.000010189179911        0.001398547246798
        0.331387152731185       -0.000012411787586        0.000009897163091        0.001348516257002
        0.333806037057690       -0.000012007910629        0.000009575101692        0.001295147305385
        0.336224921384195       -0.000011544082491        0.000009205235533        0.001236130155933
        0.338643805710700       -0.000011041272851        0.000008804286887        0.001173813431638
        0.341062690037205       -0.000010481196961        0.000008357674723        0.001106339848180
        0.343481574363710       -0.000009881320736        0.000007879327385        0.001035647171744
        0.345900458690215       -0.000009227776144        0.000007358185719        0.000960362201984
        0.348319343016720       -0.000008534131039        0.000006805069736        0.000881981016531
        0.350738227343225       -0.000007791300159        0.000006212734029        0.000799637784348
        0.353157111669730       -0.000007008616424        0.000005588621670        0.000714363344761
        0.355575995996235       -0.000006182071423        0.000004929535479        0.000625814285284
        0.357994880322740       -0.000005316491214        0.000004239324772        0.000534540319590
        0.360413764649245       -0.000004413159236        0.000003519012020        0.000440727011687
        0.362832648975750       -0.000003472194234        0.000002768692956        0.000344434979266
        0.365251533302255       -0.000002500301523        0.000001993713373        0.000246376712489
        0.367670417628760       -0.000001492768963        0.000001190316907        0.000146123804391
        0.370089301955265       -0.000000461764283        0.000000368204983        0.000044905035950
        0.372508186281770        0.000000602298079       -0.000000480264763       -0.000058188918883
        0.374927070608275        0.000001681839977       -0.000001341076744       -0.000161432045286
        0.377345954934780        0.000002791279104       -0.000002225726378       -0.000266198587908
        0.379764839261285        0.000003907772907       -0.000003116000355       -0.000370292475835
        0.382183723587790        0.000005050444721       -0.000004027146273       -0.000475529245899
        0.384602607914295        0.000006191427462       -0.000004936944377       -0.000579277635991
        0.387021492240800        0.000007354338566       -0.000005864225750       -0.000683763617004
        0.389440376567305        0.000008506618347       -0.000006783028878       -0.000785962728275
        0.391859260893810        0.000009676083399       -0.000007715533131       -0.000888473797913
        0.394278145220315        0.000010825901942       -0.000008632370554       -0.000987927610883
        0.396697029546820        0.000011987714578       -0.000009558769655       -0.001087252180309
        0.399115913873325        0.000013120921402       -0.000010462357904       -0.001182787650441
        0.401534798199830        0.000014260536357       -0.000011371053583       -0.001277742175343
        0.403953682526335        0.000015362772146       -0.000012249942670       -0.001368224166429
        0.406372566852840        0.000016465496019       -0.000013129218547       -0.001457668314491
        0.408791451179345        0.000017522382583       -0.000013971943449       -0.001542014045970
        0.411210335505850        0.000018573570510       -0.000014810121874       -0.001624865310671
        0.413629219832355        0.000019570904577       -0.000015605357083       -0.001702058120200
        0.416048104158860        0.000020556159947       -0.000016390958411       -0.001777305679129
        0.418466988485365        0.000021480107973       -0.000017127673300       -0.001846407912013
        0.420885872811870        0.000022385482253       -0.000017849575256       -0.001913125539157
        0.423304757138375        0.000023222773341       -0.000018517187939       -0.001973290389294
        0.425723641464880        0.000024034963013       -0.000019164782685       -0.002030648244816
        0.428142525791385        0.000024773077061       -0.000019753310074       -0.002081130387374
        0.430561410117890        0.000025479614704       -0.000020316656608       -0.002128405525043
        0.432980294444395        0.000026106962930       -0.000020816858389       -0.002168570399034
        0.435399178770900        0.000026696399534       -0.000021286827941       -0.002205155850437
        0.437818063097405        0.000027202494616       -0.000021690342267       -0.002234487469239
        0.440236947423910        0.000027664570309       -0.000022058754459       -0.002259899784880
        0.442655831750415        0.000028040183521       -0.000022358223259       -0.002278006974446
        0.445074716076920        0.000028365984059       -0.000022617970894       -0.002291892124519
        0.447493600403425        0.000028603286948       -0.000022807152853       -0.002298513112018
        0.449912484729930        0.000028785383497       -0.000022952313376       -0.002300650673662
        0.452331369056435        0.000028878071871       -0.000023026182790       -0.002295655973380
        0.454750253382940        0.000028910641857       -0.000023052114637       -0.002285961556210
        0.457169137709445        0.000028854040118       -0.000023006944587       -0.002269355124241
        0.459588022035950        0.000028732967193       -0.000022910366870       -0.002247881011526
        0.462006906362455        0.000028524111315       -0.000022743795355       -0.002219799665754
        0.464425790688960        0.000028247062791       -0.000022522849564       -0.002186733674390
        0.466844675015465        0.000027884760585       -0.000022233927513       -0.002147444801161
        0.469263559341970        0.000027451241029       -0.000021888220210       -0.002103107389106
        0.471682443668475        0.000026936108667       -0.000021477440548       -0.002053004982350
