#           time (fs)    |     mu_x (e.angstrom)   |     mu_y (e.angstrom)   |     mu_z (e.angstrom)   |
        0.000000000000000       -0.000000000000000       -0.000000000000000        0.000000000000000
        0.002418884326505       -0.000000002999241       -0.000000008197499        0.000069434203863
        0.004837768653010       -0.000000011996700       -0.000000032790021        0.000138881175230
        0.007256652979515       -0.000000026847994       -0.000000073381809        0.000207215833251
        0.009675537306020       -0.000000069414203       -0.000000189726636        0.000401842692301
        0.012094421632525       -0.000000128225224       -0.000000350471128        0.000593877122334
        0.014513305959030       -0.000000268337604       -0.000000733434917        0.001035748143467
        0.016932190285535       -0.000000445054358       -0.000001216445230        0.001472535268341
        0.019351074612040       -0.000000786557206       -0.000002149861089        0.002277300173876
        0.021769958938545       -0.000001193923656       -0.000003263294851        0.003072849465534
        0.024188843265050       -0.000001876323818       -0.000005128470897        0.004346540995101
        0.026607727591555       -0.000002661203492       -0.000007273742937        0.005604654789434
        0.029026611918060       -0.000003853905238       -0.000010533704766        0.007440665749309
        0.031445496244565       -0.000005191083825       -0.000014188547990        0.009251971268283
        0.033864380571070       -0.000007086211273       -0.000019368420558        0.011728273652080
        0.036283264897575       -0.000009170842971       -0.000025066239853        0.014167514333424
        0.038702149224080       -0.000011974841928       -0.000032730293150        0.017344183698809
        0.041121033550585       -0.000015013746063       -0.000041036376838        0.020467833531396
        0.043539917877090       -0.000018937999716       -0.000051762376158        0.024384940728259
        0.045958802203595       -0.000023140056231       -0.000063247644432        0.028229203296857
        0.048377686530100       -0.000028390788589       -0.000077599253870        0.032905132009578
        0.050796570856605       -0.000033956718746       -0.000092812326916        0.037484381098493
        0.053215455183110       -0.000040724493296       -0.000111310406462        0.042914622877196
        0.055634339509615       -0.000047836342603       -0.000130748858685        0.048220333309105
        0.058053223836120       -0.000056285488304       -0.000153842562716        0.054376801569246
        0.060472108162625       -0.000065096149162       -0.000177924285576        0.060377007415497
        0.062890992489130       -0.000075354459047       -0.000205962906442        0.067207898512846
        0.065309876815635       -0.000085977578717       -0.000234998524483        0.073847201335115
        0.067728761142140       -0.000098126626012       -0.000268205023937        0.081277414925459
        0.070147645468645       -0.000110627239663       -0.000302372292634        0.088477548138107
        0.072566529795150       -0.000124693641765       -0.000340819424008        0.096409661680941
        0.074985414121655       -0.000139079850420       -0.000380140483612        0.104070599659161
        0.077404298448160       -0.000155027782861       -0.000423730330533        0.112386374441383
        0.079823182774665       -0.000171243763335       -0.000468052600568        0.120387958013523
        0.082242067101170       -0.000188968985987       -0.000516500249030        0.128950337857007
        0.084660951427675       -0.000206889576769       -0.000565481630235        0.137154372676122
        0.087079835754180       -0.000226215186140       -0.000618303558539        0.145809922839878
        0.089498720080685       -0.000245642243215       -0.000671402472491        0.154062694992998
        0.091917604407190       -0.000266316311593       -0.000727910098440        0.162644418675079
        0.094336488733695       -0.000286976975312       -0.000784380750501        0.170779563554153
        0.096755373060200       -0.000308672183723       -0.000843679428216        0.179110027389391
        0.099174257386705       -0.000330219145844       -0.000902572537452        0.186951683631203
        0.101593141713210       -0.000352534466934       -0.000963566157169        0.194846381702330
        0.104012026039715       -0.000374548279131       -0.001023735266054        0.202212561702361
        0.106430910366220       -0.000397012720758       -0.001085136486391        0.209483449355339
        0.108849794692725       -0.000419006144145       -0.001145249849093        0.216189560787204
        0.111268679019230       -0.000441084526041       -0.001205595886225        0.222648694051663
        0.113687563345735       -0.000462508886315       -0.001264153838707        0.228511151919100
        0.116106447672240       -0.000483609590450       -0.001321827650168        0.233974374369984
        0.118525331998745       -0.000503863074202       -0.001377185285964        0.238814249107466
        0.120944216325250       -0.000523347682911       -0.001430441914189        0.243104874235406
        0.123363100651755       -0.000541785485446       -0.001480836820791        0.246751526954981
        0.125781984978260       -0.000558980197314       -0.001527834595729        0.249703969289308
        0.128200869304765       -0.000574926407963       -0.001571419339939        0.251998629308206
        0.130619753631270       -0.000589135096713       -0.001610255572381        0.253461940666101
        0.133038637957775       -0.000601896180867       -0.001645134549918        0.254261182136248
        0.135457522284280       -0.000612414933831       -0.001673885268892        0.254102449868742
        0.137876406610785       -0.000621294638941       -0.001698155446062        0.253281523312687
        0.140295290937290       -0.000627427576697       -0.001714918637956        0.251389085195463
        0.142714175263795       -0.000631743050306       -0.001726713606118        0.248845056195670
        0.145133059590300       -0.000632819186499       -0.001729655296864        0.245131482106215
        0.147551943916805       -0.000631918047575       -0.001727191932561        0.240786123966100
        0.149970828243310       -0.000627308898293       -0.001714594318516        0.235190908614939
        0.152389712569815       -0.000620586950171       -0.001696221197329        0.228993289612511
        0.154808596896320       -0.000609724547899       -0.001666531881948        0.221485194639786
        0.157227481222825       -0.000596643765167       -0.001630778441166        0.213413894924159
        0.159646365549330       -0.000579038677435       -0.001582659684481        0.203992874120958
        0.162065249875835       -0.000559145045061       -0.001528284981965        0.194057763862273
        0.164484134202340       -0.000534403947973       -0.001460661733426        0.182756403614507
        0.166903018528845       -0.000507344684790       -0.001386701523851        0.170999914109593
        0.169321902855350       -0.000475187002980       -0.001298806903447        0.157884323659177
        0.171740787181855       -0.000440726669706       -0.001204617665744        0.144382147804392
        0.174159671508360       -0.000400999773063       -0.001096034500394        0.129552241428818
        0.176578555834865       -0.000359034753086       -0.000981333017609        0.114413409888582
        0.178997440161370       -0.000311727202012       -0.000852030043702        0.098002535894521
        0.181416324487875       -0.000262298055607       -0.000716927170448        0.081368830391328
        0.183835208814380       -0.000207550413926       -0.000567288588138        0.063542719524660
        0.186254093140885       -0.000150851645533       -0.000412315947307        0.045587404266002
        0.188672977467390       -0.000088964434156       -0.000243163159793        0.026542431733879
        0.191091861793895       -0.000025351277242       -0.000069291687602        0.007468306775230
        0.193510746120400        0.000043210279701        0.000118103726622       -0.012570914020786
        0.195929630446905        0.000113218368219        0.000309454229187       -0.032534109468101
        0.198348514773410        0.000187823054817        0.000513366994446       -0.053317759119554
        0.200767399099915        0.000263542394654        0.000720327861565       -0.073916541815855
        0.203186283426420        0.000343395311392        0.000938585313916       -0.095173188082764
        0.205605167752925        0.000423981584960        0.001158848816291       -0.116134051715045
        0.208024052079430        0.000508130078026        0.001388847109865       -0.137574719826869
        0.210442936405935        0.000592585481568        0.001619686000344       -0.158608292579772
        0.212861820732440        0.000679928607810        0.001858415977486       -0.179930915045022
        0.215280705058945        0.000767112443113        0.002096712440715       -0.200736453627610
        0.217699589385450        0.000856413788396        0.002340794667769       -0.221630594307195
        0.220118473711955        0.000945056283101        0.002583078094474       -0.241900709603321
        0.222537358038460        0.001034959874290        0.002828806353208       -0.262052455551324
        0.224956242364965        0.001123678952405        0.003071299178223       -0.281477966569205
        0.227375126691470        0.001212727948598        0.003314691553597       -0.300574885801115
        0.229794011017975        0.001300048629632        0.003553362278653       -0.318849705501965
        0.232212895344480        0.001386706447008        0.003790218898259       -0.336585778306756
        0.234631779670985        0.001471082531144        0.004020841363217       -0.353411745843678
        0.237050663997490        0.001553756045436        0.004246807815351       -0.369492189928546
        0.239469548323995        0.001633593739638        0.004465025774603       -0.384583777101772
        0.241888432650500        0.001710658215606        0.004675661246688       -0.398729700903937
        0.244307316977005        0.001784341365335        0.004877057334192       -0.411818534370873
        0.246726201303510        0.001854166776874        0.005067906552111       -0.423771366429724
        0.249145085630015        0.001920083382870        0.005248074758958       -0.434610519629486
        0.251563969956520        0.001981061802703        0.005414742849879       -0.444136173341547
        0.253982854283025        0.002037631514456        0.005569363671437       -0.452504191751146
        0.256401738609530        0.002088205261532        0.005707593097634       -0.459396932901091
        0.258820622936035        0.002133907541744        0.005832510514753       -0.465101562168259
        0.261239507262540        0.002172597771383        0.005938259217586       -0.469187550667518
        0.263658391589045        0.002206000414165        0.006029558644644       -0.472069138991487
        0.266077275915550        0.002231435817045        0.006099078486069       -0.473209616212504
        0.268496160242055        0.002251223474365        0.006153164741524       -0.473144160324536
        0.270915044568560        0.002262168714886        0.006183079233282       -0.471238249863033
        0.273333928895065        0.002267171041702        0.006196753467933       -0.468140048935347
        0.275752813221570        0.002262554516454        0.006184133642422       -0.463127132675416
        0.278171697548075        0.002251773488957        0.006154668007435       -0.456951007779296
        0.280590581874580        0.002230713927290        0.006097105123820       -0.448812632285442
        0.283009466201085        0.002203349827324        0.006022313792937       -0.439555662255360
        0.285428350527590        0.002165181196368        0.005917987408884       -0.428316924488502
        0.287847234854095        0.002120656697128        0.005796292410785       -0.416019643961248
        0.290266119180600        0.002064950822175        0.005644032209768       -0.401750001817093
        0.292685003507105        0.002002932565410        0.005474522403884       -0.386497005415423
        0.295103887833610        0.001929518843327        0.005273862077023       -0.369310459083980
        0.297522772160115        0.001849935875863        0.005056343544936       -0.351230358480512
        0.299941656486620        0.001758917452764        0.004807565008789       -0.331284954159153
        0.302360540813125        0.001661975898190        0.004542601155206       -0.310549642850323
        0.304779425139630        0.001553741709686        0.004246767460990       -0.288046261355663
        0.307198309466135        0.001439935094588        0.003935707237358       -0.264869455524226
        0.309617193792640        0.001315167230928        0.003594682701932       -0.240049864615402
        0.312036078119145        0.001185281965725        0.003239675586284       -0.214684906912123
        0.314454962445650        0.001044957924502        0.002856131949565       -0.187829076767439
        0.316873846772155        0.000900073554341        0.002460128631516       -0.160566012015222
        0.319292731098660        0.000745463075634        0.002037536406351       -0.131988716826288
        0.321711615425165        0.000586947060436        0.001604274518873       -0.103150672858634
        0.324130499751670        0.000419603395126        0.001146879125355       -0.073197426045401
        0.326549384078175        0.000249100340271        0.000680853808709       -0.043136357150043
        0.328968268404680        0.000070845970720        0.000193636545395       -0.012178751200675
        0.331387152731185       -0.000109738600990       -0.000299943908929        0.018729376095862
        0.333806037057690       -0.000296831600012       -0.000811319543418        0.050298833677525
        0.336224921384195       -0.000485352680945       -0.001326592274090        0.081659314330103
        0.338643805710700       -0.000678987296806       -0.001855847968033        0.113432761698237
        0.341062690037205       -0.000873086631585       -0.002386367257064        0.144837774077945
        0.343481574363710       -0.001070770106197       -0.002926689675810        0.176397835126350
        0.345900458690215       -0.001267906714451       -0.003465510375381        0.207432292883143
        0.348319343016720       -0.001466983694884       -0.004009641770360        0.238358075944392
        0.350738227343225       -0.001664468075576       -0.004549412792187        0.268605590843706
        0.353157111669730       -0.001862157076747       -0.005089750662731        0.298478727843779
        0.355575995996235       -0.002057188440742       -0.005622816744149        0.327527569815659
        0.357994880322740       -0.002250620943515       -0.006151520702627        0.355938185767720
        0.360413764649245       -0.002440326806090       -0.006670030622774        0.383387136414367
        0.362832648975750       -0.002626588315953       -0.007179134618534        0.409939651306607
        0.365251533302255       -0.002808065795151       -0.007675154076767        0.435403660472653
        0.367670417628760       -0.002984238213939       -0.008156682209035        0.459722340286881
        0.370089301955265       -0.003154596415921       -0.008622309674155        0.482837910319139
        0.372508186281770       -0.003317801122852       -0.009068393943684        0.504572099379393
        0.374927070608275       -0.003474204042152       -0.009495877910245        0.525002336690471
        0.377345954934780       -0.003621645130586       -0.009898876396640        0.543831318148730
        0.379764839261285       -0.003761354541326       -0.010280732616377        0.561270605139849
        0.382183723587790       -0.003890361704555       -0.010633346696144        0.576908048802194
        0.384602607914295       -0.004010779559387       -0.010962474063704        0.591086299934118
        0.387021492240800       -0.004118850154219       -0.011257863380994        0.603284265877483
        0.389440376567305       -0.004217560033868       -0.011527657224659        0.613970739009563
        0.391859260893810       -0.004302399869256       -0.011759551177239        0.622523211102616
        0.394278145220315       -0.004377207033251       -0.011964012726324        0.629529848973524
        0.396697029546820       -0.004436769430369       -0.012126817226955        0.634275774587993
        0.399115913873325       -0.004485739008034       -0.012260657996163        0.637460051827270
        0.401534798199830       -0.004518261659203       -0.012349556217638        0.638285863291751
        0.403953682526335       -0.004539754492195       -0.012408295972678        0.637553112419078
        0.406372566852840       -0.004543793613330       -0.012419341695331        0.634394703109703
        0.408791451179345       -0.004536499222819       -0.012399398559705        0.629699889727581
        0.411210335505850       -0.004510960454926       -0.012329600633195        0.622544014358876
        0.413629219832355       -0.004473926566261       -0.012228371786065        0.613892928501397
        0.416048104158860       -0.004418092045204       -0.012075768118006        0.602777994549609
        0.418466988485365       -0.004350750070293       -0.011891699443827        0.590227823253425
        0.420885872811870       -0.004264301060240       -0.011655418862746        0.575244039774492
        0.423304757138375       -0.004166486922617       -0.011388061871678        0.558903286591154
        0.425723641464880       -0.004049521407035       -0.011068372207596        0.540192139102924
        0.428142525791385       -0.003921491105593       -0.010718426575761        0.520219860391371
        0.430561410117890       -0.003774535757803       -0.010316767378579        0.497972886644411
        0.432980294444395       -0.003616975108678       -0.009886107576070        0.474577222543063
        0.435399178770900       -0.003440991126709       -0.009405106063442        0.449034074165160
        0.437818063097405       -0.003255019202032       -0.008896790754604        0.422470064156699
        0.440236947423910       -0.003051401591133       -0.008340259850483        0.393915853067465
        0.442655831750415       -0.002838567487756       -0.007758523063581        0.364482541524040
        0.445074716076920       -0.002609137505736       -0.007131440748980        0.333244486946350
        0.447493600403425       -0.002371410222121       -0.006481664208891        0.301281342043811
        0.449912484729930       -0.002118400861468       -0.005790133840285        0.267724752760367
        0.452331369056435       -0.001858152228766       -0.005078800316638        0.233607441404716
        0.454750253382940       -0.001584186785694       -0.004329992049181        0.198131087227214
        0.457169137709445       -0.001304167579190       -0.003564620064718        0.162266667683474
        0.459588022035950       -0.001012231542107       -0.002766694015704        0.125297612423030
        0.462006906362455       -0.000715541079701       -0.001955754752989        0.088119223697598
        0.464425790688960       -0.000408947745789       -0.001117767022661        0.050107207825393
        0.466844675015465       -0.000098997449053       -0.000270584728813        0.012068349202608
        0.469263559341970        0.000218652163774        0.000597622170928       -0.026520177318674
        0.471682443668475        0.000538180623888        0.001470984581259       -0.064951672869702
