#     time (fs)  |  E_x (eV/ang)  | E_y (eV/ang) | E_z (eV/ang)
     0.00000000     0.00000000     0.00000000     2.21441529
     0.00241888     0.07848089     0.00000000     2.21302414
     0.00483777     0.15686317     0.00000000     2.20885242
     0.00725665     0.23504836     0.00000000     2.20190539
     0.00967554     0.31293822     0.00000000     2.19219177
     0.01209442     0.39043489     0.00000000     2.17972376
     0.01451331     0.46744099     0.00000000     2.16451703
     0.01693219     0.54385978     0.00000000     2.14659070
     0.01935107     0.61959524     0.00000000     2.12596727
     0.02176996     0.69455220     0.00000000     2.10267266
     0.02418884     0.76863649     0.00000000     2.07673615
     0.02660773     0.84175503     0.00000000     2.04819031
     0.02902661     0.91381594     0.00000000     2.01707102
     0.03144550     0.98472868     0.00000000     1.98341738
     0.03386438     1.05440416     0.00000000     1.94727167
     0.03628326     1.12275483     0.00000000     1.90867930
     0.03870215     1.18969482     0.00000000     1.86768876
     0.04112103     1.25514000     0.00000000     1.82435157
     0.04353992     1.31900817     0.00000000     1.77872216
     0.04595880     1.38121906     0.00000000     1.73085788
     0.04837769     1.44169451     0.00000000     1.68081885
     0.05079657     1.50035855     0.00000000     1.62866795
     0.05321546     1.55713745     0.00000000     1.57447071
     0.05563434     1.61195989     0.00000000     1.51829522
     0.05805322     1.66475698     0.00000000     1.46021207
     0.06047211     1.71546237     0.00000000     1.40029423
     0.06289099     1.76401237     0.00000000     1.33861698
     0.06530988     1.81034597     0.00000000     1.27525783
     0.06772876     1.85440496     0.00000000     1.21029638
     0.07014765     1.89613398     0.00000000     1.14381424
     0.07256653     1.93548059     0.00000000     1.07589496
     0.07498541     1.97239536     0.00000000     1.00662386
     0.07740430     2.00683192     0.00000000     0.93608799
     0.07982318     2.03874698     0.00000000     0.86437598
     0.08224207     2.06810046     0.00000000     0.79157791
     0.08466095     2.09485546     0.00000000     0.71778526
     0.08707984     2.11897838     0.00000000     0.64309075
     0.08949872     2.14043890     0.00000000     0.56758823
     0.09191760     2.15921006     0.00000000     0.49137256
     0.09433649     2.17526828     0.00000000     0.41453950
     0.09675537     2.18859337     0.00000000     0.33718559
     0.09917426     2.19916860     0.00000000     0.25940803
     0.10159314     2.20698069     0.00000000     0.18130453
     0.10401203     2.21201980     0.00000000     0.10297323
     0.10643091     2.21427961     0.00000000     0.02451255
     0.10884979     2.21375729     0.00000000    -0.05397892
     0.11126868     2.21045349     0.00000000    -0.13240258
     0.11368756     2.20437236     0.00000000    -0.21065988
     0.11610645     2.19552154     0.00000000    -0.28865249
     0.11852533     2.18391215     0.00000000    -0.36628243
     0.12094422     2.16955877     0.00000000    -0.44345215
     0.12336310     2.15247945     0.00000000    -0.52006469
     0.12578198     2.13269564     0.00000000    -0.59602380
     0.12820087     2.11023220     0.00000000    -0.67123403
     0.13061975     2.08511736     0.00000000    -0.74560089
     0.13303864     2.05738266     0.00000000    -0.81903094
     0.13545752     2.02706296     0.00000000    -0.89143191
     0.13787641     1.99419635     0.00000000    -0.96271284
     0.14029529     1.95882412     0.00000000    -1.03278416
     0.14271418     1.92099073     0.00000000    -1.10155785
     0.14513306     1.88074370     0.00000000    -1.16894747
     0.14755194     1.83813361     0.00000000    -1.23486837
     0.14997083     1.79321399     0.00000000    -1.29923772
     0.15238971     1.74604129     0.00000000    -1.36197464
     0.15480860     1.69667476     0.00000000    -1.42300029
     0.15722748     1.64517644     0.00000000    -1.48223802
     0.15964637     1.59161104     0.00000000    -1.53961339
     0.16206525     1.53604585     0.00000000    -1.59505430
     0.16448413     1.47855069     0.00000000    -1.64849110
     0.16690302     1.41919781     0.00000000    -1.69985666
     0.16932190     1.35806177     0.00000000    -1.74908642
     0.17174079     1.29521939     0.00000000    -1.79611854
     0.17415967     1.23074963     0.00000000    -1.84089392
     0.17657856     1.16473349     0.00000000    -1.88335631
     0.17899744     1.09725391     0.00000000    -1.92345235
     0.18141632     1.02839569     0.00000000    -1.96113166
     0.18383521     0.95824534     0.00000000    -1.99634690
     0.18625409     0.88689100     0.00000000    -2.02905383
     0.18867298     0.81442233     0.00000000    -2.05921134
     0.19109186     0.74093037     0.00000000    -2.08678156
     0.19351075     0.66650746     0.00000000    -2.11172983
     0.19592963     0.59124712     0.00000000    -2.13402482
     0.19834851     0.51524391     0.00000000    -2.15363850
     0.20076740     0.43859332     0.00000000    -2.17054624
     0.20318628     0.36139165     0.00000000    -2.18472679
     0.20560517     0.28373592     0.00000000    -2.19616234
     0.20802405     0.20572368     0.00000000    -2.20483851
     0.21044294     0.12745296     0.00000000    -2.21074440
     0.21286182     0.04902210     0.00000000    -2.21387260
     0.21528071    -0.02947035    -0.00000000    -2.21421918
     0.21769959    -0.10792577    -0.00000000    -2.21178369
     0.22011847    -0.18624559    -0.00000000    -2.20656921
     0.22253736    -0.26433140    -0.00000000    -2.19858227
     0.22495624    -0.34208509    -0.00000000    -2.18783292
     0.22737513    -0.41940897    -0.00000000    -2.17433466
     0.22979401    -0.49620588    -0.00000000    -2.15810445
     0.23221290    -0.57237933    -0.00000000    -2.13916268
     0.23463178    -0.64783361    -0.00000000    -2.11753316
     0.23705066    -0.72247392    -0.00000000    -2.09324306
     0.23946955    -0.79620648    -0.00000000    -2.06632290
     0.24188843    -0.86893864    -0.00000000    -2.03680650
     0.24430732    -0.94057902    -0.00000000    -2.00473095
     0.24672620    -1.01103761    -0.00000000    -1.97013655
     0.24914509    -1.08022587    -0.00000000    -1.93306677
     0.25156397    -1.14805689    -0.00000000    -1.89356818
     0.25398285    -1.21444542    -0.00000000    -1.85169041
     0.25640174    -1.27930807    -0.00000000    -1.80748609
     0.25882062    -1.34256332    -0.00000000    -1.76101074
     0.26123951    -1.40413170    -0.00000000    -1.71232276
     0.26365839    -1.46393586    -0.00000000    -1.66148333
     0.26607728    -1.52190066    -0.00000000    -1.60855633
     0.26849616    -1.57795326    -0.00000000    -1.55360825
     0.27091504    -1.63202323    -0.00000000    -1.49670814
     0.27333393    -1.68404264    -0.00000000    -1.43792748
     0.27575281    -1.73394614    -0.00000000    -1.37734014
     0.27817170    -1.78167101    -0.00000000    -1.31502223
     0.28059058    -1.82715730    -0.00000000    -1.25105207
     0.28300947    -1.87034785    -0.00000000    -1.18551001
     0.28542835    -1.91118840    -0.00000000    -1.11847841
     0.28784723    -1.94962763    -0.00000000    -1.05004151
     0.29026612    -1.98561725    -0.00000000    -0.98028527
     0.29268500    -2.01911203    -0.00000000    -0.90929735
     0.29510389    -2.05006990    -0.00000000    -0.83716694
     0.29752277    -2.07845195    -0.00000000    -0.76398468
     0.29994166    -2.10422252    -0.00000000    -0.68984250
     0.30236054    -2.12734923    -0.00000000    -0.61483357
     0.30477943    -2.14780304    -0.00000000    -0.53905212
     0.30719831    -2.16555823    -0.00000000    -0.46259339
     0.30961719    -2.18059250    -0.00000000    -0.38555343
     0.31203608    -2.19288695    -0.00000000    -0.30802903
     0.31445496    -2.20242615    -0.00000000    -0.23011762
     0.31687385    -2.20919811    -0.00000000    -0.15191707
     0.31929273    -2.21319431    -0.00000000    -0.07352565
     0.32171162    -2.21440974     0.00000000     0.00495816
     0.32413050    -2.21284287     0.00000000     0.08343573
     0.32654938    -2.20849566     0.00000000     0.16180848
     0.32896827    -2.20137359     0.00000000     0.23997792
     0.33138715    -2.19148559     0.00000000     0.31784583
     0.33380604    -2.17884410     0.00000000     0.39531439
     0.33622492    -2.16346499     0.00000000     0.47228626
     0.33864381    -2.14536759     0.00000000     0.54866472
     0.34106269    -2.12457464     0.00000000     0.62435381
     0.34348157    -2.10111226     0.00000000     0.69925842
     0.34590046    -2.07500993     0.00000000     0.77328446
     0.34831934    -2.04630046     0.00000000     0.84633889
     0.35073823    -2.01501990     0.00000000     0.91832995
     0.35315711    -1.98120756     0.00000000     0.98916716
     0.35557600    -1.94490593     0.00000000     1.05876153
     0.35799488    -1.90616062     0.00000000     1.12702562
     0.36041376    -1.86502031     0.00000000     1.19387366
     0.36283265    -1.82153669     0.00000000     1.25922165
     0.36525153    -1.77576440     0.00000000     1.32298749
     0.36767042    -1.72776094     0.00000000     1.38509105
     0.37008930    -1.67758663     0.00000000     1.44545432
     0.37250819    -1.62530451     0.00000000     1.50400144
     0.37492707    -1.57098028     0.00000000     1.56065885
     0.37734595    -1.51468218     0.00000000     1.61535537
     0.37976484    -1.45648096     0.00000000     1.66802227
     0.38218372    -1.39644973     0.00000000     1.71859338
     0.38460261    -1.33466394     0.00000000     1.76700516
     0.38702149    -1.27120120     0.00000000     1.81319679
     0.38944038    -1.20614126     0.00000000     1.85711021
     0.39185926    -1.13956586     0.00000000     1.89869027
     0.39427815    -1.07155865     0.00000000     1.93788471
     0.39669703    -1.00220507     0.00000000     1.97464429
     0.39911591    -0.93159228     0.00000000     2.00892282
     0.40153480    -0.85980898     0.00000000     2.04067724
     0.40395368    -0.78694537     0.00000000     2.06986764
     0.40637257    -0.71309300     0.00000000     2.09645736
     0.40879145    -0.63834467     0.00000000     2.12041297
     0.41121034    -0.56279428     0.00000000     2.14170439
     0.41362922    -0.48653677     0.00000000     2.16030485
     0.41604810    -0.40966795     0.00000000     2.17619099
     0.41846699    -0.33228441     0.00000000     2.18934286
     0.42088587    -0.25448336     0.00000000     2.19974392
     0.42330476    -0.17636257     0.00000000     2.20738110
     0.42572364    -0.09802018     0.00000000     2.21224482
     0.42814253    -0.01955464     0.00000000     2.21432895
     0.43056141     0.05893547     0.00000000     2.21363088
     0.43298029     0.13735154     0.00000000     2.21015150
     0.43539918     0.21559502     0.00000000     2.20389516
     0.43781806     0.29356763     0.00000000     2.19486973
     0.44023695     0.37117137     0.00000000     2.18308655
     0.44265583     0.44830876     0.00000000     2.16856043
     0.44507472     0.52488287     0.00000000     2.15130961
     0.44749360     0.60079749     0.00000000     2.13135578
     0.44991248     0.67595724     0.00000000     2.10872400
     0.45233137     0.75026768     0.00000000     2.08344270
     0.45475025     0.82363544     0.00000000     2.05554366
     0.45716914     0.89596834     0.00000000     2.02506193
     0.45958802     0.96717550     0.00000000     1.99203580
     0.46200691     1.03716745     0.00000000     1.95650677
     0.46442579     1.10585625     0.00000000     1.91851949
     0.46684468     1.17315560     0.00000000     1.87812167
     0.46926356     1.23898093     0.00000000     1.83536409
     0.47168244     1.30324954     0.00000000     1.79030046
     0.47410133     1.36588067     0.00000000     1.74298740
     0.47652021     1.42679565     0.00000000     1.69348436
     0.47893910     1.48591792     0.00000000     1.64185353
     0.48135798     1.54317320     0.00000000     1.58815980
     0.48377687     1.59848957     0.00000000     1.53247061
     0.48619575     1.65179750     0.00000000     1.47485595
     0.48861463     1.70303003     0.00000000     1.41538821
     0.49103352     1.75212279     0.00000000     1.35414210
     0.49345240     1.79901408     0.00000000     1.29119457
     0.49587129     1.84364500     0.00000000     1.22662471
     0.49829017     1.88595947     0.00000000     1.16051366
     0.50070906     1.92590432     0.00000000     1.09294448
     0.50312794     1.96342936     0.00000000     1.02400207
     0.50554682     1.99848744     0.00000000     0.95377305
     0.50796571     2.03103452     0.00000000     0.88234565
     0.51038459     2.06102970     0.00000000     0.80980963
     0.51280348     2.08843530     0.00000000     0.73625613
     0.51522236     2.11321687     0.00000000     0.66177755
     0.51764125     2.13534329     0.00000000     0.58646748
     0.52006013     2.15478675     0.00000000     0.51042054
     0.52247901     2.17152283     0.00000000     0.43373228
     0.52489790     2.18553048     0.00000000     0.35649906
     0.52731678     2.19679213     0.00000000     0.27881792
     0.52973567     2.20529360     0.00000000     0.20078645
     0.53215455     2.21102423     0.00000000     0.12250270
     0.53457344     2.21397682     0.00000000     0.04406504
     0.53699232     2.21414764     0.00000000    -0.03442799
     0.53941120     2.21153650     0.00000000    -0.11287777
     0.54183009     2.20614666     0.00000000    -0.19118571
     0.54424897     2.19798491     0.00000000    -0.26925345
     0.54666786     2.18706149     0.00000000    -0.34698287
     0.54908674     2.17339013     0.00000000    -0.42427633
     0.55150563     2.15698801     0.00000000    -0.50103671
     0.55392451     2.13787574     0.00000000    -0.57716756
     0.55634340     2.11607733     0.00000000    -0.65257322
     0.55876228     2.09162017     0.00000000    -0.72715896
     0.56118116     2.06453498     0.00000000    -0.80083106
     0.56360005     2.03485581     0.00000000    -0.87349695
     0.56601893     2.00261993     0.00000000    -0.94506533
     0.56843782     1.96786786     0.00000000    -1.01544628
     0.57085670     1.93064326     0.00000000    -1.08455138
     0.57327559     1.89099289     0.00000000    -1.15229378
     0.57569447     1.84896658     0.00000000    -1.21858838
     0.57811335     1.80461714     0.00000000    -1.28335189
     0.58053224     1.75800027     0.00000000    -1.34650292
     0.58295112     1.70917457     0.00000000    -1.40796214
     0.58537001     1.65820136     0.00000000    -1.46765232
     0.58778889     1.60514471     0.00000000    -1.52549846
     0.59020778     1.55007126     0.00000000    -1.58142789
     0.59262666     1.49305023     0.00000000    -1.63537032
     0.59504554     1.43415324     0.00000000    -1.68725800
     0.59746443     1.37345432     0.00000000    -1.73702571
     0.59988331     1.31102971     0.00000000    -1.78461093
     0.60230220     1.24695786     0.00000000    -1.82995387
     0.60472108     1.18131926     0.00000000    -1.87299757
     0.60713997     1.11419639     0.00000000    -1.91368793
     0.60955885     1.04567358     0.00000000    -1.95197383
     0.61197773     0.97583694     0.00000000    -1.98780717
     0.61439662     0.90477420     0.00000000    -2.02114292
     0.61681550     0.83257466     0.00000000    -2.05193921
     0.61923439     0.75932903     0.00000000    -2.08015733
     0.62165327     0.68512934     0.00000000    -2.10576183
     0.62407216     0.61006881     0.00000000    -2.12872054
     0.62649104     0.53424176     0.00000000    -2.14900461
     0.62890992     0.45774346     0.00000000    -2.16658856
     0.63132881     0.38067003     0.00000000    -2.18145030
     0.63374769     0.30311831     0.00000000    -2.19357115
     0.63616658     0.22518573     0.00000000    -2.20293587
     0.63858546     0.14697021     0.00000000    -2.20953272
     0.64100435     0.06857004     0.00000000    -2.21335339
     0.64342323    -0.00991629    -0.00000000    -2.21439309
     0.64584212    -0.08839016    -0.00000000    -2.21265050
     0.64826100    -0.16675298    -0.00000000    -2.20812783
     0.65067988    -0.24490627    -0.00000000    -2.20083075
     0.65309877    -0.32275185    -0.00000000    -2.19076843
     0.65551765    -0.40019191    -0.00000000    -2.17795351
     0.65793654    -0.47712915    -0.00000000    -2.16240210
     0.66035542    -0.55346690    -0.00000000    -2.14413373
     0.66277431    -0.62910924    -0.00000000    -2.12317136
     0.66519319    -0.70396114    -0.00000000    -2.09954133
     0.66761207    -0.77792854    -0.00000000    -2.07327332
     0.67003096    -0.85091852    -0.00000000    -2.04440034
     0.67244984    -0.92283935    -0.00000000    -2.01295867
     0.67486873    -0.99360068    -0.00000000    -1.97898781
     0.67728761    -1.06311360    -0.00000000    -1.94253045
     0.67970650    -1.13129076    -0.00000000    -1.90363239
     0.68212538    -1.19804652    -0.00000000    -1.86234251
     0.68454426    -1.26329698    -0.00000000    -1.81871268
     0.68696315    -1.32696017    -0.00000000    -1.77279773
     0.68938203    -1.38895610    -0.00000000    -1.72465534
     0.69180092    -1.44920687    -0.00000000    -1.67434600
     0.69421980    -1.50763678    -0.00000000    -1.62193292
     0.69663869    -1.56417242    -0.00000000    -1.56748197
     0.69905757    -1.61874275    -0.00000000    -1.51106154
     0.70147645    -1.67127921    -0.00000000    -1.45274254
     0.70389534    -1.72171578    -0.00000000    -1.39259824
     0.70631422    -1.76998910    -0.00000000    -1.33070420
     0.70873311    -1.81603851    -0.00000000    -1.26713820
     0.71115199    -1.85980615    -0.00000000    -1.20198010
     0.71357088    -1.90123704    -0.00000000    -1.13531176
     0.71598976    -1.94027911    -0.00000000    -1.06721697
     0.71840864    -1.97688331    -0.00000000    -0.99778126
     0.72082753    -2.01100366    -0.00000000    -0.92709189
     0.72324641    -2.04259727    -0.00000000    -0.85523767
     0.72566530    -2.07162446    -0.00000000    -0.78230889
     0.72808418    -2.09804874    -0.00000000    -0.70839717
     0.73050307    -2.12183693    -0.00000000    -0.63359538
     0.73292195    -2.14295913    -0.00000000    -0.55799752
     0.73534084    -2.16138881    -0.00000000    -0.48169855
     0.73775972    -2.17710280    -0.00000000    -0.40479435
     0.74017860    -2.19008137    -0.00000000    -0.32738155
     0.74259749    -2.20030820    -0.00000000    -0.24955741
     0.74501637    -2.20777045    -0.00000000    -0.17141971
     0.74743526    -2.21245874    -0.00000000    -0.09306664
     0.74985414    -2.21436718    -0.00000000    -0.01459662
     0.75227303    -2.21349338     0.00000000     0.06389173
     0.75469191    -2.20983842     0.00000000     0.14229980
     0.75711079    -2.20340691     0.00000000     0.22052909
     0.75952968    -2.19420692     0.00000000     0.29848129
     0.76194856    -2.18225001     0.00000000     0.37605846
     0.76436745    -2.16755121     0.00000000     0.45316313
     0.76678633    -2.15012899     0.00000000     0.52969842
     0.76920522    -2.13000523     0.00000000     0.60556817
     0.77162410    -2.10720522     0.00000000     0.68067706
     0.77404298    -2.08175760     0.00000000     0.75493070
     0.77646187    -2.05369436     0.00000000     0.82823581
     0.77888075    -2.02305074     0.00000000     0.90050029
     0.78129964    -1.98986526     0.00000000     0.97163332
     0.78371852    -1.95417961     0.00000000     1.04154555
     0.78613741    -1.91603862     0.00000000     1.11014912
