#           time (fs)    |     mu_x (e.angstrom)   |     mu_y (e.angstrom)   |     mu_z (e.angstrom)   |
        0.000000000000000       -0.000000000000000       -0.000000000000000        0.000000000000000
        0.002418884326505        0.000000002652662       -0.000000002110640        0.000095190916333
        0.004837768653010        0.000000036532776       -0.000000029067382        0.000655526017968
        0.007256652979515        0.000000101493715       -0.000000080754297        0.001214187739639
        0.009675537306020        0.000000251937718       -0.000000200455240        0.002260626026373
        0.012094421632525        0.000000460055954       -0.000000366046665        0.003302676635938
        0.014513305959030        0.000000810017059       -0.000000644492768        0.004846144320565
        0.016932190285535        0.000001244329708       -0.000000990055921        0.006381465479996
        0.019351074612040        0.000001876824289       -0.000001493294241        0.008422574367873
        0.021769958938545        0.000002619684111       -0.000002084344727        0.010450740031748
        0.024188843265050        0.000003614887399       -0.000002876150014        0.012979673189983
        0.026607727591555        0.000004745061558       -0.000003775333222        0.015489858625831
        0.029026611918060        0.000006177429129       -0.000004914904231        0.018486438746970
        0.031445496244565        0.000007767240379       -0.000006179704148        0.021457512100419
        0.033864380571070        0.000009702726387       -0.000007719430352        0.024891451982514
        0.036283264897575        0.000011815307265       -0.000009399961702        0.028292247243614
        0.038702149224080        0.000014308748529       -0.000011383315729        0.032123578410993
        0.041121033550585        0.000016995476941       -0.000013520254694        0.035913345244558
        0.043539917877090        0.000020088208447       -0.000015979864245        0.040093017394994
        0.045958802203595        0.000023386389054       -0.000018602571262        0.044222039990952
        0.048377686530100        0.000027104151340       -0.000021558521559        0.048692680772957
        0.050796570856605        0.000031035001750       -0.000024683406618        0.053103054752010
        0.053215455183110        0.000035386194088       -0.000028141820384        0.057799876446278
        0.055634339509615        0.000039953187980       -0.000031770996903        0.062426429999636
        0.058053223836120        0.000044927513499       -0.000035722933589        0.067278267066687
        0.060472108162625        0.000050115124828       -0.000039843201241        0.072049610001899
        0.062890992489130        0.000055682664921       -0.000044263910627        0.076980069247201
        0.065309876815635        0.000061455548380       -0.000048846100567        0.081819751498512
        0.067728761142140        0.000067566294163       -0.000053694658061        0.086748454816286
        0.070147645468645        0.000073868927437       -0.000058693365844        0.091576214295261
        0.072566529795150        0.000080452786003       -0.000063912708017        0.096420112616592
        0.074985414121655        0.000087209589277       -0.000069266430375        0.101153191040736
        0.077404298448160        0.000094176872119       -0.000074783799579        0.105827927227211
        0.079823182774665        0.000101292809994       -0.000080415481341        0.110382431765473
        0.082242067101170        0.000108535200671       -0.000086143278038        0.114803729741251
        0.084660951427675        0.000115896861407       -0.000091961265094        0.119096017935686
        0.087079835754180        0.000123288849371       -0.000097798296039        0.123181075309562
        0.089498720080685        0.000130765986352       -0.000103697679744        0.127129140741042
        0.091917604407190        0.000138166744086       -0.000109530779793        0.130798002498487
        0.094336488733695        0.000145614254758       -0.000115395107905        0.134322839023731
        0.096755373060200        0.000152869926171       -0.000121101103294        0.137499730525787
        0.099174257386705        0.000160130234666       -0.000126804422866        0.140526653583841
        0.101593141713210        0.000167076594140       -0.000132252394736        0.143141252054314
        0.104012026039715        0.000173982395393       -0.000137661583589        0.145601156485482
        0.106430910366220        0.000180447829125       -0.000142715382629        0.147589781363026
        0.108849794692725        0.000186825144710       -0.000147692718594        0.149420316369253
        0.111268679019230        0.000192633899130       -0.000152213675211        0.150727020315361
        0.113687563345735        0.000198305388335       -0.000156619586357        0.151873663591691
        0.116106447672240        0.000203281024501       -0.000160469356027        0.152451207554717
        0.118525331998745        0.000208069488445       -0.000164165290891        0.152868222216382
        0.120944216325250        0.000212038476475       -0.000167208771415        0.152678919737228
        0.123363100651755        0.000215770488421       -0.000170060125892        0.152330179441630
        0.125781984978260        0.000218565872356       -0.000172168382225        0.151346597335202
        0.128200869304765        0.000221075463864       -0.000174047419258        0.150206266941620
        0.130619753631270        0.000222540524850       -0.000175100552364        0.148411771588807
        0.133038637957775        0.000223672855148       -0.000175889251887        0.146464832801510
        0.135457522284280        0.000223664699647       -0.000175779150617        0.143853973528652
        0.137876406610785        0.000223279634610       -0.000175371930089        0.141096587220507
        0.140295290937290        0.000221672634459       -0.000174004849048        0.137675310613921
        0.142714175263795        0.000219648161954       -0.000172311099257        0.134115009913074
        0.145133059590300        0.000216337174599       -0.000169610010920        0.129900701397503
        0.147551943916805        0.000212572584720       -0.000166556397134        0.125556412119268
        0.149970828243310        0.000207475884829       -0.000162463072614        0.120577763697242
        0.152389712569815        0.000201894646697       -0.000157995557360        0.115479651290255
        0.154808596896320        0.000194956504624       -0.000152472336970        0.109776356963348
        0.157227481222825        0.000187508775963       -0.000146557887379        0.103965501779419
        0.159646365549330        0.000178701624137       -0.000139589109155        0.097587784814842
        0.162065249875835        0.000169366335722       -0.000132217058603        0.091115690165407
        0.164484134202340        0.000158692470885       -0.000123810119910        0.084123668988790
        0.166903018528845        0.000147478935084       -0.000114993160352        0.077051609071752
        0.169321902855350        0.000134971712338       -0.000105179194377        0.069514511111933
        0.171740787181855        0.000121920713218       -0.000094953982156        0.061912728431922
        0.174159671508360        0.000107645196849       -0.000083788137361        0.053907963666556
        0.176578555834865        0.000092829528586       -0.000072215501122        0.045854727979110
        0.178997440161370        0.000076882574531       -0.000059776817466        0.037466836181811
        0.181416324487875        0.000060407004876       -0.000046941562272        0.029047379218627
        0.183835208814380        0.000042916760197       -0.000033332443207        0.020366866942602
        0.186254093140885        0.000024917406451       -0.000019342749885        0.011672209175351
        0.188672977467390        0.000006042222166       -0.000004688033927        0.002794294283304
        0.191091861793895       -0.000013314661852        0.000010325542722       -0.006080018282885
        0.193510746120400       -0.000033387897070        0.000025879902564       -0.015056735252983
        0.195929630446905       -0.000053907713367        0.000041765828596       -0.024011964831893
        0.198348514773410       -0.000074965799930        0.000058054464930       -0.032986882018875
        0.200767399099915       -0.000096427957094        0.000074642002637       -0.041922482810005
        0.203186283426420       -0.000118234142066        0.000091482196299       -0.050794409839644
        0.205605167752925       -0.000140394932678        0.000108583542996       -0.059609440515542
        0.208024052079430       -0.000162692158063        0.000125777626463       -0.068278021050761
        0.210442936405935       -0.000185288120605        0.000143190394621       -0.076872564263300
        0.212861820732440       -0.000207802712432        0.000160528469531       -0.085239686477726
        0.215280705058945       -0.000230554425810        0.000178038480761       -0.093516253631453
        0.217699589385450       -0.000253000165122        0.000195301417368       -0.101487427047288
        0.220118473711955       -0.000275616415137        0.000212685776914       -0.109352326891046
        0.222537358038460       -0.000297698924028        0.000229648457449       -0.116838004626729
        0.224956242364965       -0.000319881173330        0.000246678869564       -0.124202654860581
        0.227375126691470       -0.000341302542400        0.000263113631294       -0.131119481269664
        0.229794011017975       -0.000362749628891        0.000279559909354       -0.137901643336840
        0.232212895344480       -0.000383213206997        0.000295240136858       -0.144173608266225
        0.234631779670985       -0.000403626190409        0.000310873855524       -0.150298526778306
        0.237050663997490       -0.000422841453519        0.000325577665582       -0.155858009206513
        0.239469548323995       -0.000441928526033        0.000340175896091       -0.161259439009126
        0.241888432650500       -0.000459615939374        0.000353689853010       -0.166048124614571
        0.244307316977005       -0.000477097313812        0.000367038917102       -0.170669230311295
        0.246726201303510       -0.000492993100456        0.000379161711566       -0.174638889534290
        0.249145085630015       -0.000508605788775        0.000391060885024       -0.178433004315765
        0.251563969956520       -0.000522466518256        0.000401606906115       -0.181546119681058
        0.253982854283025       -0.000535968913797        0.000411871999803       -0.184477352519385
        0.256401738609530       -0.000547575826420        0.000420674727978       -0.186707586341118
        0.258820622936035       -0.000558752005678        0.000429141472862       -0.188751268969327
        0.261239507262540       -0.000567914991686        0.000436056621700       -0.190083765028761
        0.263658391589045       -0.000576578655135        0.000442583785022       -0.191226732592934
        0.266077275915550       -0.000583139812929        0.000447492121665       -0.191658247921843
        0.268496160242055       -0.000589137789716        0.000451964284174       -0.191898949730752
        0.270915044568560       -0.000592974493682        0.000454774062691       -0.191437815211055
        0.273333928895065       -0.000596189741553        0.000457103991870       -0.190786254576606
        0.275752813221570       -0.000597217157702        0.000457752940185       -0.189452165641882
        0.278171697548075       -0.000597571197438        0.000457883501510       -0.187929670366442
        0.280590581874580       -0.000595744193866        0.000456340311010       -0.185753311627580
        0.283009466201085       -0.000593198926470        0.000454245868349       -0.183392139216590
        0.285428350527590       -0.000588513335459        0.000450511145464       -0.180414649298731
        0.287847234854095       -0.000583072200350        0.000446198412454       -0.177257433426743
        0.290266119180600       -0.000575565399648        0.000440305063129       -0.173529718667337
        0.292685003507105       -0.000567273842998        0.000433813379318       -0.169628765773081
        0.295103887833610       -0.000557024635209        0.000425826409889       -0.165210673663700
        0.297522772160115       -0.000545969869125        0.000417227428309       -0.160627120768140
        0.299941656486620       -0.000533097650155        0.000407243159439       -0.155586486100378
        0.302360540813125       -0.000519407695552        0.000396639945434       -0.150389333005786
        0.304779425139630       -0.000504070915417        0.000384784648961       -0.144800911580689
        0.307198309466135       -0.000487912933927        0.000372310203225       -0.139065942494984
        0.309617193792640       -0.000470306865833        0.000358738184599       -0.133010248953726
        0.312036078119145       -0.000451884798807        0.000344553415948       -0.126818860269378
        0.314454962445650       -0.000432238645012        0.000329444576919       -0.120380928078028
        0.316873846772155       -0.000411790190376        0.000313735761996       -0.113818880495348
        0.319292731098660       -0.000390363565786        0.000297292689102       -0.107086963346215
        0.321711615425165       -0.000368156535995        0.000280268466624       -0.100243077742551
        0.324130499751670       -0.000345235382463        0.000262713100432       -0.093307312595478
        0.326549384078175       -0.000321563498826        0.000244601056568       -0.086272129979843
        0.328968268404680       -0.000297455494499        0.000226171004471       -0.079223182635429
        0.331387152731185       -0.000272633684505        0.000207213913241       -0.072087609167015
        0.333806037057690       -0.000247663223065        0.000188158474711       -0.065015323616801
        0.336224921384195       -0.000222022497730        0.000168610262970       -0.057869281981302
        0.338643805710700       -0.000196525321703        0.000149186240551       -0.050861354796068
        0.341062690037205       -0.000170407319132        0.000129307751051       -0.043792463203700
        0.343481574363710       -0.000144724899398        0.000109775123080       -0.036933163882309
        0.345900458690215       -0.000118476188458        0.000089829751449       -0.030025463558533
        0.348319343016720       -0.000092949948393        0.000070447283603       -0.023394421054446
        0.350738227343225       -0.000066916192421        0.000050696565904       -0.016727172328329
        0.353157111669730       -0.000041881679560        0.000031717438357       -0.010398246895343
        0.355575995996235       -0.000016401764088        0.000012416665374       -0.004044812850213
        0.357994880322740        0.000007817125365       -0.000005915809258        0.001914929089950
        0.360413764649245        0.000032416894850       -0.000024521876599        0.007888093943024
        0.362832648975750        0.000055513533066       -0.000041978372060        0.013419285992079
        0.365251533302255        0.000078925057473       -0.000059659614470        0.018953526402253
        0.367670417628760        0.000100615439871       -0.000076028677584        0.024005275612494
        0.370089301955265        0.000122554173476       -0.000092573488393        0.029050492172165
        0.372508186281770        0.000142581911807       -0.000107665129347        0.033581008250415
        0.374927070608275        0.000162791830863       -0.000122883981089        0.038096268811813
        0.377345954934780        0.000180932691025       -0.000136532908034        0.042073340217469
        0.379764839261285        0.000199190791587       -0.000150261556095        0.046027337682495
        0.382183723587790        0.000215256690750       -0.000162330000560        0.049428648460350
        0.384602607914295        0.000231376931699       -0.000174432270982        0.052799999213174
        0.387021492240800        0.000245219319075       -0.000184812356785        0.055613283201557
        0.389440376567305        0.000259055936303       -0.000195182471460        0.058390663240454
        0.391859260893810        0.000270568492994       -0.000203798086489        0.060613695099061
        0.394278145220315        0.000282018622032       -0.000212362485608        0.062795813696417
        0.396697029546820        0.000291139227626       -0.000219170622933        0.064436238936385
        0.399115913873325        0.000300144784267       -0.000225889251586        0.066031652346349
        0.401534798199830        0.000306856710779       -0.000230880793857        0.067106661154408
        0.403953682526335        0.000313405492206       -0.000235747827212        0.068133431437106
        0.406372566852840        0.000317737799380       -0.000238947756145        0.068669283513299
        0.408791451179345        0.000321863781618       -0.000241991745492        0.069154489904981
        0.411210335505850        0.000323890901127       -0.000243458766470        0.069185899739323
        0.413629219832355        0.000325673722070       -0.000244742196722        0.069165012134858
        0.416048104158860        0.000325514231598       -0.000244567777044        0.068734406106417
        0.418466988485365        0.000325077862141       -0.000244186034900        0.068250532113691
        0.420885872811870        0.000322892463491       -0.000242492863013        0.067407190493932
        0.423304757138375        0.000320403082298       -0.000240572623884        0.066510209162016
        0.425723641464880        0.000316391810379       -0.000237512505912        0.065309307543289
        0.428142525791385        0.000312054910427       -0.000234209556866        0.064054904262122
        0.430561410117890        0.000306453612184       -0.000229960775863        0.062556470122342
        0.432980294444395        0.000300510379325       -0.000225457301068        0.061005088353713
        0.435399178770900        0.000293586513279       -0.000220221473521        0.059272889426206
        0.437818063097405        0.000286309528647       -0.000214722837919        0.057488615871368
        0.440236947423910        0.000278357346750       -0.000208721311019        0.055588997733689
        0.442655831750415        0.000270045675902       -0.000202452387060        0.053638398289580
        0.445074716076920        0.000261380859769       -0.000195922228954        0.051639089134188
        0.447493600403425        0.000252354601855       -0.000189123320022        0.049590013552460
        0.449912484729930        0.000243308435134       -0.000182312963494        0.047558914467905
        0.452331369056435        0.000233902815224       -0.000175235385933        0.045479288016626
        0.454750253382940        0.000224815982821       -0.000168399993567        0.043483267294981
        0.457169137709445        0.000215375079537       -0.000161301386835        0.041439887931501
        0.459588022035950        0.000206591192437       -0.000154698012451        0.039543597921853
        0.462006906362455        0.000197461401199       -0.000147837453589        0.037600957507145
        0.464425790688960        0.000189320352677       -0.000141720080417        0.035865692342928
        0.466844675015465        0.000180843691907       -0.000135353084639        0.034084840244595
        0.469263559341970        0.000173674956654       -0.000129967625152        0.032567452363774
        0.471682443668475        0.000166182330013       -0.000124341118580        0.031004919382353
