#           time (fs)       | force (atom_1) (H/b)   |  force (atom_2) (H/b)  |           ...          |  force (atom_N) (H/b)  |
        0.000000000000000       -0.000000000000000       -0.000000000000000       -0.001977038000788       -0.000000000000000       -0.000000000000000        0.001977038000788
        0.120944216325250       -0.000003803118231       -0.000000529235031       -0.000904889972130        0.000003803118231        0.000000529235031        0.000904889970291
        0.241888432650500        0.000003861272334        0.000000537328013        0.000103466159361       -0.000003861272334       -0.000000537328013       -0.000103466154230
        0.362832648975750        0.000021919066675        0.000003050217700        0.001033736220267       -0.000021919066675       -0.000003050217700       -0.001033736228779
        0.483776865301000        0.000051531371357        0.000007171012531        0.002134559450135       -0.000051531371357       -0.000007171012531       -0.002134559434429
        0.604721081626250        0.000092023418165        0.000012805812995        0.003417368933997       -0.000092023418165       -0.000012805812995       -0.003417368937239
        0.725665297951500        0.000142262796109        0.000019797034406        0.004793001836335       -0.000142262796109       -0.000019797034406       -0.004793001823764
        0.846609514276750        0.000203301755384        0.000028291105476        0.006208787395889       -0.000203301755384       -0.000028291105476       -0.006208787393932
        0.967553730602000        0.000269139057626        0.000037452906123        0.007340121096966       -0.000269139057626       -0.000037452906123       -0.007340121096526
        1.088497946927250        0.000342995999065        0.000047730704921        0.008258606060053       -0.000342995999065       -0.000047730704921       -0.008258606063272
        1.209442163252500        0.000418994825511        0.000058306565146        0.008909616671431       -0.000418994825511       -0.000058306565146       -0.008909616671737
        1.330386379577750        0.000497932007897        0.000069291321205        0.009379641932507       -0.000497932007897       -0.000069291321205       -0.009379641945075
        1.451330595903000        0.000583418449890        0.000081187460567        0.010069620846837       -0.000583418449890       -0.000081187460567       -0.010069620849350
        1.572274812228250        0.000664245078346        0.000092435148843        0.010610205937357       -0.000664245078346       -0.000092435148843       -0.010610205951903
        1.693219028553500        0.000756333580360        0.000105250018555        0.011569546154428       -0.000756333580360       -0.000105250018555       -0.011569546160690
        1.814163244878750        0.000835564037398        0.000116275586201        0.012137382315901       -0.000835564037398       -0.000116275586201       -0.012137382321401
        1.935107461204000        0.000920287797664        0.000128065591801        0.012730160916319       -0.000920287797664       -0.000128065591801       -0.012730160917347
        2.056051677529250        0.000992549626595        0.000138121417975        0.012905327174396       -0.000992549626595       -0.000138121417975       -0.012905327171778
        2.176995893854500        0.001054122080616        0.000146689729614        0.012684009178785       -0.001054122080616       -0.000146689729614       -0.012684009172510
        2.297940110179750        0.001117713434528        0.000155538987947        0.012625210438497       -0.001117713434528       -0.000155538987947       -0.012625210429401
        2.418884326505000        0.001153987140857        0.000160586771184        0.012083217876478       -0.001153987140857       -0.000160586771184       -0.012083217866916
        2.539828542830250        0.001206870981137        0.000167945991549        0.012242598695717       -0.001206870981137       -0.000167945991549       -0.012242598686032
        2.660772759155500        0.001224367687176        0.000170380802172        0.011894934464192       -0.001224367687176       -0.000170380802172       -0.011894934456860
        2.781716975480750        0.001252237294160        0.000174259086306        0.011993449448241       -0.001252237294160       -0.000174259086306       -0.011993449444110
        2.902661191806000        0.001250630376452        0.000174035470443        0.011579296651035       -0.001250630376452       -0.000174035470443       -0.011579296649539
        3.023605408131250        0.001233235187200        0.000171614786727        0.010931133526454       -0.001233235187200       -0.000171614786727       -0.010931133528887
        3.144549624456500        0.001206649678636        0.000167915195558        0.010155947681938       -0.001206649678636       -0.000167915195558       -0.010155947688018
        3.265493840781750        0.001140897466984        0.000158765235582        0.008871120699834       -0.001140897466984       -0.000158765235582       -0.008871120711978
        3.386438057107000        0.001087488658028        0.000151332962690        0.008079688686954       -0.001087488658028       -0.000151332962690       -0.008079688692082
        3.507382273432250        0.000989303875477        0.000137669744507        0.006899582585195       -0.000989303875477       -0.000137669744507       -0.006899582598762
        3.628326489757500        0.000904869704307        0.000125920038057        0.006320792063623       -0.000904869704307       -0.000125920038057       -0.006320792063850
        3.749270706082750        0.000784488767609        0.000109168043734        0.005394766790205       -0.000784488767609       -0.000109168043734       -0.005394766796127
        3.870214922408000        0.000654962514551        0.000091143403276        0.004533812265439       -0.000654962514551       -0.000091143403276       -0.004533812266347
        3.991159138733250        0.000508102317931        0.000070706602581        0.003403923261426       -0.000508102317931       -0.000070706602581       -0.003403923259839
        4.112103355058500        0.000326460455008        0.000045429648441        0.001901432973554       -0.000326460455008       -0.000045429648441       -0.001901432965892
        4.233047571383750        0.000153874630553        0.000021412915823        0.000586988509122       -0.000153874630553       -0.000021412915823       -0.000586988506473
        4.353991787709000       -0.000062166357779       -0.000008650959104       -0.001050918510627        0.000062166357779        0.000008650959104        0.001050918525771
        4.474936004034250       -0.000248876025372       -0.000034633139724       -0.002041820224558        0.000248876025372        0.000034633139724        0.002041820221871
        4.595880220359500       -0.000473030412571       -0.000065826061135       -0.003256257414171        0.000473030412571        0.000065826061135        0.003256257422427
        4.716824436684750       -0.000672658576033       -0.000093605956793       -0.003973989125133        0.000672658576033        0.000093605956793        0.003973989124038
        4.837768653010000       -0.000893347385610       -0.000124316613691       -0.004960906917869        0.000893347385610        0.000124316613691        0.004960906919179
        4.958712869335250       -0.001116349460683       -0.000155349180565       -0.005998937407720        0.001116349460683        0.000155349180565        0.005998937407063
        5.079657085660500       -0.001326007976960       -0.000184524882931       -0.007037510259610        0.001326007976960        0.000184524882931        0.007037510257654
        5.200601301985750       -0.001564017886135       -0.000217645913788       -0.008413723187735        0.001564017886135        0.000217645913788        0.008413723182628
        5.321545518311000       -0.001742042451988       -0.000242419490740       -0.009138154636953        0.001742042451988        0.000242419490740        0.009138154635420
        5.442489734636251       -0.001958284983019       -0.000272511411751       -0.010177173018863        0.001958284983019        0.000272511411751        0.010177173016076
        5.563433950961501       -0.002089386792913       -0.000290755303746       -0.010270012799254        0.002089386792913        0.000290755303746        0.010270012798948
        5.684378167286750       -0.002250456183216       -0.000313169429652       -0.010687476187200        0.002250456183216        0.000313169429652        0.010687476186609
        5.805322383612000       -0.002345852361329       -0.000326444591009       -0.010612992778730        0.002345852361329        0.000326444591009        0.010612992778476
        5.926266599937250       -0.002440608578479       -0.000339630695504       -0.010769702165955        0.002440608578479        0.000339630695504        0.010769702166092
        6.047210816262500       -0.002511578947569       -0.000349506804187       -0.011016216372834        0.002511578947569        0.000349506804187        0.011016216373422
        6.168155032587750       -0.002532393621665       -0.000352403336439       -0.011005752874749        0.002532393621665        0.000352403336439        0.011005752874877
        6.289099248913001       -0.002555671043028       -0.000355642580858       -0.011192834383662        0.002555671043028        0.000355642580858        0.011192834386301
        6.410043465238251       -0.002490399001161       -0.000346559440824       -0.010642625239430        0.002490399001161        0.000346559440824        0.010642625238283
        6.530987681563500       -0.002431412060971       -0.000338350924036       -0.010189356898534        0.002431412060971        0.000338350924036        0.010189356904020
        6.651931897888750       -0.002286428616486       -0.000318175288950       -0.009138925964241        0.002286428616486        0.000318175288950        0.009138925964371
        6.772876114214000       -0.002144045094520       -0.000298361455358       -0.008260671162857        0.002144045094520        0.000298361455358        0.008260671164544
        6.893820330539250       -0.001945133048066       -0.000270681213630       -0.007287910279521        0.001945133048066        0.000270681213630        0.007287910279350
        7.014764546864500       -0.001740885801694       -0.000242258534707       -0.006503767528832        0.001740885801694        0.000242258534707        0.006503767529740
        7.135708763189751       -0.001498646849096       -0.000208548998974       -0.005749680269761        0.001498646849096        0.000208548998974        0.005749680263980
        7.256652979515001       -0.001236523736638       -0.000172072418996       -0.004920406968126        0.001236523736638        0.000172072418996        0.004920406974669
        7.377597195840250       -0.000939861768621       -0.000130789473580       -0.003888051224282        0.000939861768621        0.000130789473580        0.003888051210289
        7.498541412165500       -0.000614389850012       -0.000085497387657       -0.002623582979754        0.000614389850012        0.000085497387657        0.002623582983409
        7.619485628490750       -0.000270711117141       -0.000037671675130       -0.001202529722485        0.000270711117141        0.000037671675130        0.001202529712783
        7.740429844816000        0.000098047890483        0.000013644164366        0.000235992283640       -0.000098047890483       -0.000013644164366       -0.000235992284168
        7.861374061141250        0.000453250617512        0.000063073536378        0.001475317984817       -0.000453250617512       -0.000063073536378       -0.001475317984786
        7.982318277466501        0.000829519702864        0.000115434463729        0.002568824125748       -0.000829519702864       -0.000115434463729       -0.002568824123574
        8.103262493791750        0.001176724730995        0.000163750889745        0.003394378946367       -0.001176724730995       -0.000163750889745       -0.003394378951256
        8.224206710117000        0.001544599272426        0.000214943648085        0.004272060423700       -0.001544599272426       -0.000214943648085       -0.004272060413988
        8.345150926442249        0.001898138979781        0.000264141597356        0.005175696687624       -0.001898138979781       -0.000264141597356       -0.005175696695507
        8.466095142767500        0.002253992348059        0.000313661510408        0.006244494173682       -0.002253992348059       -0.000313661510408       -0.006244494162118
        8.587039359092751        0.002614536322594        0.000363834160114        0.007435123003072       -0.002614536322594       -0.000363834160114       -0.007435123005219
        8.707983575418000        0.002937336086814        0.000408754393551        0.008480773926071       -0.002937336086814       -0.000408754393551       -0.008480773923773
        8.828927791743251        0.003263278603599        0.000454111966761        0.009410681996881       -0.003263278603599       -0.000454111966761       -0.009410681996866
        8.949872008068500        0.003532850237690        0.000491625070290        0.009981518737664       -0.003532850237690       -0.000491625070290       -0.009981518736380
        9.070816224393750        0.003783006409534        0.000526436351719        0.010301843505147       -0.003783006409534       -0.000526436351719       -0.010301843506290
        9.191760440718999        0.004012345039976        0.000558350702157        0.010626507930197       -0.004012345039976       -0.000558350702157       -0.010626507924814
        9.312704657044250        0.004185675781914        0.000582471095833        0.010746219688113       -0.004185675781914       -0.000582471095833       -0.010746219689628
        9.433648873369501        0.004389248573498        0.000610799918959        0.011310334341233       -0.004389248573498       -0.000610799918959       -0.011310334338191
        9.554593089694750        0.004500665933096        0.000626304557336        0.011552124640671       -0.004500665933096       -0.000626304557336       -0.011552124640042
        9.675537306020001        0.004642552842051        0.000646049284405        0.012080157891049       -0.004642552842051       -0.000646049284405       -0.012080157890149
        9.796481522345250        0.004693292810490        0.000653110166933        0.012141236366892       -0.004693292810490       -0.000653110166933       -0.012141236366711
        9.917425738670500        0.004714514023890        0.000656063272660        0.011972208178180       -0.004714514023890       -0.000656063272660       -0.011972208178819
       10.038369954995749        0.004706819725877        0.000654992547504        0.011681005651073       -0.004706819725877       -0.000654992547504       -0.011681005651418
       10.159314171321000        0.004599939451265        0.000640119280480        0.010908969546874       -0.004599939451265       -0.000640119280480       -0.010908969548247
       10.280258387646251        0.004542818947517        0.000632170494471        0.010655840764480       -0.004542818947517       -0.000632170494471       -0.010655840765125
       10.401202603971500        0.004353294469047        0.000605796608367        0.009931688065708       -0.004353294469047       -0.000605796608367       -0.009931688066565
       10.522146820296751        0.004227775567197        0.000588329624608        0.009840246674694       -0.004227775567197       -0.000588329624608       -0.009840246676927
       10.643091036622000        0.003987116754260        0.000554839976908        0.009268619046650       -0.003987116754260       -0.000554839976908       -0.009268619046302
       10.764035252947250        0.003743354228830        0.000520918422753        0.008774290747235       -0.003743354228830       -0.000520918422753       -0.008774290747292
       10.884979469272501        0.003448062567060        0.000479826167384        0.007965611562381       -0.003448062567060       -0.000479826167384       -0.007965611563159
       11.005923685597750        0.003068184238437        0.000426962983035        0.006756861359821       -0.003068184238437       -0.000426962983035       -0.006756861363899
       11.126867901923001        0.002718427011406        0.000378291396890        0.005766088696494       -0.002718427011406       -0.000378291396890       -0.005766088698095
       11.247812118248250        0.002250696748574        0.000313202895623        0.004372489389607       -0.002250696748574       -0.000313202895623       -0.004372489400241
       11.368756334573501        0.001856201264903        0.000258305614852        0.003601726451436       -0.001856201264903       -0.000258305614852       -0.003601726449744
       11.489700550898750        0.001359073783541        0.000189126249536        0.002516729184504       -0.001359073783541       -0.000189126249536       -0.002516729192538
       11.610644767224001        0.000905484326991        0.000126005557782        0.001820788562065       -0.000905484326991       -0.000126005557782       -0.001820788562507
       11.731588983549251        0.000395768212520        0.000055074380928        0.000813365912391       -0.000395768212520       -0.000055074380928       -0.000813365914036
       11.852533199874500       -0.000140185345833       -0.000019507950640       -0.000335311552009        0.000140185345833        0.000019507950640        0.000335311554168
       11.973477416199751       -0.000656804329725       -0.000091399718627       -0.001511543233917        0.000656804329725        0.000091399718627        0.001511543239054
       12.094421632525000       -0.001249579648156       -0.000173889265414       -0.003033490650990        0.001249579648156        0.000173889265414        0.003033490664710
       12.215365848850251       -0.001741998266883       -0.000242413353238       -0.004022040583900        0.001741998266883        0.000242413353238        0.004022040590895
       12.336310065175500       -0.002319478204841       -0.000322774421251       -0.005293735455836        0.002319478204841        0.000322774421251        0.005293735470537
       12.457254281500751       -0.002765237788278       -0.000384805523117       -0.005830378546128        0.002765237788278        0.000384805523117        0.005830378552159
       12.578198497826001       -0.003270484394679       -0.000455114731581       -0.006661822323834        0.003270484394679        0.000455114731581        0.006661822331219
       12.699142714151250       -0.003689273190491       -0.000513392626406       -0.007177199838551        0.003689273190491        0.000513392626406        0.007177199841021
       12.820086930476501       -0.004099493931943       -0.000570478206041       -0.007876470287690        0.004099493931943        0.000570478206041        0.007876470285404
       12.941031146801750       -0.004501256443839       -0.000626386754196       -0.008749824220736        0.004501256443839        0.000626386754196        0.008749824213427
       13.061975363127001       -0.004789591009359       -0.000666510872763       -0.009287030090683        0.004789591009359        0.000666510872763        0.009287030078669
       13.182919579452250       -0.005120157473351       -0.000712511907402       -0.010114753682928        0.005120157473351        0.000712511907402        0.010114753669907
       13.303863795777501       -0.005258318043630       -0.000731738083862       -0.010117929305744        0.005258318043630        0.000731738083862        0.010117929291669
       13.424808012102751       -0.005443283299684       -0.000757477515699       -0.010366012290946        0.005443283299684        0.000757477515699        0.010366012279250
