#           time (fs)    |     mu_x (e.angstrom)   |     mu_y (e.angstrom)   |     mu_z (e.angstrom)   |
        0.000000000000000       -0.000000000000000       -0.000000000000000        0.000000000000000
        0.002418884326505       -0.000000002887364       -0.000000000401906       -0.000030957697242
        0.004837768653010       -0.000000011545656       -0.000000001606673       -0.000061893443726
        0.007256652979515       -0.000000025833772       -0.000000003595297       -0.000092332013985
        0.009675537306020       -0.000000044202513       -0.000000006151142       -0.000118490053759
        0.012094421632525       -0.000000066986261       -0.000000009322214       -0.000143660283917
        0.014513305959030       -0.000000089725918       -0.000000012486097       -0.000160361645897
        0.016932190285535       -0.000000114622393       -0.000000015951382       -0.000175602276197
        0.019351074612040       -0.000000133023077       -0.000000018511251       -0.000178323991872
        0.021769958938545       -0.000000150325378       -0.000000020919955       -0.000179137840620
        0.024188843265050       -0.000000152523397       -0.000000021224879       -0.000163586771774
        0.026607727591555       -0.000000149436470       -0.000000020796466       -0.000145714112697
        0.029026611918060       -0.000000120709059       -0.000000016797650       -0.000107896974324
        0.031445496244565       -0.000000081662431       -0.000000011365361       -0.000067384987974
        0.033864380571070       -0.000000004794170       -0.000000000667138       -0.000003673443497
        0.036283264897575        0.000000088175254        0.000000012268737        0.000063059370369
        0.038702149224080        0.000000232462369        0.000000032349061        0.000155869582882
        0.041121033550585        0.000000399265781        0.000000055559329        0.000251975061751
        0.043539917877090        0.000000631828042        0.000000087924079        0.000376611915554
        0.045958802203595        0.000000893828154        0.000000124381533        0.000504760889523
        0.048377686530100        0.000001236572220        0.000000172079203        0.000663431597450
        0.050796570856605        0.000001616045480        0.000000224883793        0.000825770359186
        0.053215455183110        0.000002091368420        0.000000291031119        0.001020125348005
        0.055634339509615        0.000002610937755        0.000000363331010        0.001218240625618
        0.058053223836120        0.000003241147356        0.000000451032307        0.001449346523073
        0.060472108162625        0.000003923197903        0.000000545942571        0.001684239506095
        0.062890992489130        0.000004729926034        0.000000658208091        0.001952561561029
        0.065309876815635        0.000005596016712        0.000000778728828        0.002224631382978
        0.067728761142140        0.000006599638760        0.000000918393976        0.002530025586353
        0.070147645468645        0.000007669922724        0.000001067329660        0.002839062514512
        0.072566529795150        0.000008888996055        0.000001236976848        0.003180777532728
        0.074985414121655        0.000010181662970        0.000001416858718        0.003525965959113
        0.077404298448160        0.000011632397063        0.000001618743629        0.003902654832636
        0.079823182774665        0.000013163149758        0.000001831756861        0.004282586002336
        0.082242067101170        0.000014858920069        0.000002067740800        0.004692327406057
        0.084660951427675        0.000016640497519        0.000002315658126        0.005105021662787
        0.087079835754180        0.000018591414327        0.000002587148021        0.005545350370990
        0.089498720080685        0.000020633172020        0.000002871271334        0.005988288547108
        0.091917604407190        0.000022845714414        0.000003179168803        0.006456234598747
        0.094336488733695        0.000025153272070        0.000003500280134        0.006926398030784
        0.096755373060200        0.000027629995989        0.000003844940855        0.007418533951911
        0.099174257386705        0.000030204961266        0.000004203263923        0.007912452465112
        0.101593141713210        0.000032944289014        0.000004584468345        0.008424947777113
        0.104012026039715        0.000035784064344        0.000004979641679        0.008938754855818
        0.106430910366220        0.000038780161385        0.000005396577875        0.009467436982654
        0.108849794692725        0.000041877839425        0.000005827640265        0.009996931229502
        0.111268679019230        0.000045120582504        0.000006278899497        0.010537351816117
        0.113687563345735        0.000048464933891        0.000006744288289        0.011078063703944
        0.116106447672240        0.000051939972672        0.000007227873583        0.011625569273164
        0.118525331998745        0.000055515527923        0.000007725436079        0.012172832110485
        0.120944216325250        0.000059204440409        0.000008238783857        0.012722637918224
        0.123363100651755        0.000062991665862        0.000008765801793        0.013271661883836
        0.125781984978260        0.000066872205963        0.000009305816320        0.013818927783448
        0.128200869304765        0.000070847771722        0.000009859043158        0.014364875838723
        0.130619753631270        0.000074894205359        0.000010422143317        0.014904782935477
        0.133038637957775        0.000079031341302        0.000010997853786        0.015442847395270
        0.135457522284280        0.000083214865637        0.000011580031415        0.015970674261765
        0.137876406610785        0.000087483799663        0.000012174082491        0.016496152796754
        0.140295290937290        0.000091773038209        0.000012770971284        0.017007350029570
        0.142714175263795        0.000096141509172        0.000013378873577        0.017515719884434
        0.145133059590300        0.000100503073936        0.000013985827308        0.018005981811367
        0.147551943916805        0.000104936910066        0.000014602825547        0.018492971054255
        0.149970828243310        0.000109336020361        0.000015215004185        0.018958303449515
        0.152389712569815        0.000113799772530        0.000015836165348        0.019419958118123
        0.154808596896320        0.000118200918805        0.000016448627434        0.019856740849053
        0.157227481222825        0.000122658536705        0.000017068934837        0.020289486926619
        0.159646365549330        0.000127026176669        0.000017676734357        0.020694530538756
        0.162065249875835        0.000131441714960        0.000018291185925        0.021095229778053
        0.164484134202340        0.000135740988408        0.000018889471782        0.021465825124283
        0.166903018528845        0.000140079329074        0.000019493180568        0.021831823838036
        0.169321902855350        0.000144276777263        0.000020077296690        0.022165783970560
        0.171740787181855        0.000148504353865        0.000020665591662        0.022494954020838
        0.174159671508360        0.000152568628977        0.000021231175731        0.022790647689871
        0.176578555834865        0.000156654138257        0.000021799700797        0.023081419035146
        0.178997440161370        0.000160556688426        0.000022342779575        0.023337795273600
        0.181416324487875        0.000164471774709        0.000022887588821        0.023589179568188
        0.183835208814380        0.000168187490367        0.000023404668096        0.023805782984951
        0.186254093140885        0.000171907388508        0.000023922315258        0.024017387869370
        0.188672977467390        0.000175415196331        0.000024410462496        0.024194364422772
        0.191091861793895        0.000178919319552        0.000024898082763        0.024366398292708
        0.193510746120400        0.000182202711067        0.000025355000670        0.024504491468117
        0.195929630446905        0.000185475170869        0.000025810383033        0.024637758661948
        0.198348514773410        0.000188522653889        0.000026234472371        0.024738296130512
        0.200767399099915        0.000191552700330        0.000026656120893        0.024834182628149
        0.203186283426420        0.000194358162653        0.000027046531099        0.024899053615325
        0.205605167752925        0.000197140534652        0.000027433713656        0.024959503492117
        0.208024052079430        0.000199703511013        0.000027790379986        0.024991127232157
        0.210442936405935        0.000202238687891        0.000028143163279        0.025018610258373
        0.212861820732440        0.000204564522863        0.000028466829480        0.025019896052176
        0.215280705058945        0.000206858870107        0.000028786099314        0.025017366968785
        0.217699589385450        0.000208958771547        0.000029078325058        0.024991666495238
        0.220118473711955        0.000211024575678        0.000029365791195        0.024962516628150
        0.222537358038460        0.000212915555312        0.000029628943816        0.024913569281094
        0.224956242364965        0.000214770944798        0.000029887128970        0.024861571276694
        0.227375126691470        0.000216475644659        0.000030124359306        0.024793443409187
        0.229794011017975        0.000218144395935        0.000030356572150        0.024722689981897
        0.232212895344480        0.000219690801518        0.000030571774629        0.024639709034692
        0.234631779670985        0.000221202031343        0.000030782066982        0.024554546710862
        0.237050663997490        0.000222623074532        0.000030979824368        0.024461231281558
        0.239469548323995        0.000224010822103        0.000031172933042        0.024366190201720
        0.241888432650500        0.000225343879062        0.000031358446556        0.024267177173621
        0.244307316977005        0.000226646583452        0.000031539720643        0.024166898075827
        0.246726201303510        0.000227932874749        0.000031718726492        0.024066867970260
        0.249145085630015        0.000229192755322        0.000031894041135        0.023966027519969
        0.251563969956520        0.000230476657550        0.000032072714714        0.023869629261906
        0.253982854283025        0.000231739006945        0.000032248372730        0.023772864918070
        0.256401738609530        0.000233067286923        0.000032433222053        0.023684641212086
        0.258820622936035        0.000234379688043        0.000032615844966        0.023596476824306
        0.261239507262540        0.000235800672326        0.000032813595100        0.023520791326067
        0.263658391589045        0.000237212152370        0.000033010005415        0.023445564643930
        0.266077275915550        0.000238774846250        0.000033227475879        0.023386532081770
        0.268496160242055        0.000240334982244        0.000033444572616        0.023328325325023
        0.270915044568560        0.000242088153597        0.000033688549891        0.023289745677232
        0.273333928895065        0.000243846145044        0.000033933179534        0.023252320264804
        0.275752813221570        0.000245837389336        0.000034210286950        0.023237618031919
        0.278171697548075        0.000247841114473        0.000034489112117        0.023224354499788
        0.280590581874580        0.000250115917847        0.000034805679472        0.023236524028353
        0.283009466201085        0.000252410990629        0.000035125047691        0.023250368082081
        0.285428350527590        0.000255011808350        0.000035486983010        0.023291925798623
        0.287847234854095        0.000257640653521        0.000035852798005        0.023335341347250
        0.290266119180600        0.000260606021071        0.000036265463840        0.023408285649895
        0.292685003507105        0.000263606984714        0.000036683061757        0.023483215555594
        0.295103887833610        0.000266970678532        0.000037151158399        0.023588994987872
        0.297522772160115        0.000270377191090        0.000037625191337        0.023696830141935
        0.299941656486620        0.000274167455356        0.000038152649211        0.023836320340713
        0.302360540813125        0.000278007263490        0.000038686978328        0.023977877543211
        0.304779425139630        0.000282246118397        0.000039276861738        0.024151367312515
        0.307198309466135        0.000286540601064        0.000039874462076        0.024326876292395
        0.309617193792640        0.000291243246847        0.000040528886267        0.024534063009454
        0.312036078119145        0.000296006829714        0.000041191765267        0.024743162776202
        0.314454962445650        0.000301181159171        0.000041911828590        0.024983157187561
        0.316873846772155        0.000306420839939        0.000042640960035        0.025224901757221
        0.319292731098660        0.000312067070462        0.000043426692740        0.025496242073738
        0.321711615425165        0.000317782065891        0.000044221967637        0.025769115463311
        0.324130499751670        0.000323892500025        0.000045072298551        0.026069790515581
        0.326549384078175        0.000330074023424        0.000045932494166        0.026371730753160
        0.328968268404680        0.000336632944820        0.000046845236217        0.026699211825729
        0.331387152731185        0.000343264120577        0.000047768004183        0.027027643581310
        0.333806037057690        0.000350247829883        0.000048739859393        0.027378924407264
        0.336224921384195        0.000357303749253        0.000049721733472        0.027730799713444
        0.338643805710700        0.000364680742037        0.000050748317715        0.028102443982743
        0.341062690037205        0.000372128661941        0.000051784741465        0.028474290387460
        0.343481574363710        0.000379859948251        0.000052860628938        0.028862486004701
        0.345900458690215        0.000387659632323        0.000053946003167        0.029250461381886
        0.348319343016720        0.000395699194925        0.000055064790159        0.029651080603920
        0.350738227343225        0.000403803393479        0.000056192539723        0.030051033744223
        0.353157111669730        0.000412098779316        0.000057346926921        0.030459698236855
        0.355575995996235        0.000420453842396        0.000058509586028        0.030867234250998
        0.357994880322740        0.000428946879338        0.000059691478257        0.031279384028199
        0.360413764649245        0.000437493494531        0.000060880793144        0.031689933521517
        0.362832648975750        0.000446121123130        0.000062081415117        0.032100898671420
        0.365251533302255        0.000454795167511        0.000063288462601        0.032509789590772
        0.367670417628760        0.000463490375277        0.000064498488929        0.032914863651023
        0.370089301955265        0.000472223868632        0.000065713809059        0.033317394665407
        0.372508186281770        0.000480916712333        0.000066923506513        0.033711908486854
        0.374927070608275        0.000489638856832        0.000068137247244        0.034103422741302
        0.377345954934780        0.000498257556536        0.000069336627003        0.034482817673764
        0.379764839261285        0.000506895846264        0.000070538698599        0.034858775752712
        0.382183723587790        0.000515367933309        0.000071717675998        0.035218674999809
        0.384602607914295        0.000523849315580        0.000072897912635        0.035574725951098
        0.387021492240800        0.000532102815433        0.000074046471773        0.035911002972456
        0.389440376567305        0.000540354884601        0.000075194797667        0.036243052276163
        0.391859260893810        0.000548319514665        0.000076303158091        0.036551895164254
        0.394278145220315        0.000556271718287        0.000077409755346        0.036856168581090
        0.396697029546820        0.000563880080118        0.000078468537957        0.037134139405682
        0.399115913873325        0.000571464916795        0.000079524013252        0.037407241706811
        0.401534798199830        0.000578653661975        0.000080524402552        0.037651329901386
        0.403953682526335        0.000585807850000        0.000081519949767        0.037890297564239
        0.406372566852840        0.000592518799060        0.000082453849561        0.038097966524438
        0.408791451179345        0.000599184395204        0.000083381405465        0.038300313575911
        0.411210335505850        0.000605365589453        0.000084241585237        0.038469539748639
        0.413629219832355        0.000611491037755        0.000085093975434        0.038633296046537
        0.416048104158860        0.000617097704753        0.000085874204699        0.038762599907872
        0.418466988485365        0.000622638796078        0.000086645277159        0.038886341271787
        0.420885872811870        0.000627634210678        0.000087340445285        0.038974809720625
        0.423304757138375        0.000632554935059        0.000088025188953        0.039057679452678
        0.425723641464880        0.000636911159454        0.000088631408147        0.039104979282835
        0.428142525791385        0.000641184434811        0.000089226054348        0.039146700754855
        0.430561410117890        0.000644882922884        0.000089740743755        0.039153083009141
        0.432980294444395        0.000648491185574        0.000090242848375        0.039153963133761
        0.435399178770900        0.000651523238931        0.000090664797541        0.039120258287091
        0.437818063097405        0.000654458883763        0.000091073302257        0.039081181833628
        0.440236947423910        0.000656825949206        0.000091402712522        0.039008785896207
        0.442655831750415        0.000659091608919        0.000091717983697        0.038931200755897
        0.445074716076920        0.000660805409677        0.000091956486458        0.038822052529830
        0.447493600403425        0.000662414066518        0.000092180330664        0.038707946176697
        0.449912484729930        0.000663496562272        0.000092330981815        0.038564496037600
        0.452331369056435        0.000664471487026        0.000092466637350        0.038416363568788
        0.454750253382940        0.000664954660637        0.000092533887600        0.038241534276165
        0.457169137709445        0.000665329177375        0.000092585991749        0.038062338546807
        0.459588022035950        0.000665254649137        0.000092575632945        0.037859478710907
        0.462006906362455        0.000665071726872        0.000092550165159        0.037652603201469
        0.464425790688960        0.000664490200065        0.000092469253124        0.037425434148240
        0.466844675015465        0.000663801875476        0.000092373454689        0.037194629314943
        0.469263559341970        0.000662772419919        0.000092230209528        0.036947186192726
        0.471682443668475        0.000661639058231        0.000092072480704        0.036696510152320
