#     time (fs)  |  E_x (eV/ang)  | E_y (eV/ang) | E_z (eV/ang)
     0.00000000     0.00000000     0.00000000     0.17631282
     0.00241888     0.00567573     0.00567573     0.17626712
     0.00483777     0.01134852     0.01134852     0.17613005
     0.00725665     0.01701542     0.01701542     0.17590169
     0.00967554     0.02267350     0.02267350     0.17558214
     0.01209442     0.02831984     0.02831984     0.17517158
     0.01451331     0.03395149     0.03395149     0.17467021
     0.01693219     0.03956554     0.03956554     0.17407831
     0.01935107     0.04515908     0.04515908     0.17339616
     0.02176996     0.05072922     0.05072922     0.17262414
     0.02418884     0.05627305     0.05627305     0.17176263
     0.02660773     0.06178772     0.06178772     0.17081209
     0.02902661     0.06727036     0.06727036     0.16977301
     0.03144550     0.07271813     0.07271813     0.16864592
     0.03386438     0.07812821     0.07812821     0.16743141
     0.03628326     0.08349778     0.08349778     0.16613012
     0.03870215     0.08882408     0.08882408     0.16474271
     0.04112103     0.09410433     0.09410433     0.16326990
     0.04353992     0.09933580     0.09933580     0.16171245
     0.04595880     0.10451578     0.10451578     0.16007119
     0.04837769     0.10964158     0.10964158     0.15834695
     0.05079657     0.11471055     0.11471055     0.15654062
     0.05321546     0.11972006     0.11972006     0.15465315
     0.05563434     0.12466750     0.12466750     0.15268552
     0.05805322     0.12955033     0.12955033     0.15063874
     0.06047211     0.13436600     0.13436600     0.14851387
     0.06289099     0.13911202     0.13911202     0.14631202
     0.06530988     0.14378593     0.14378593     0.14403433
     0.06772876     0.14838531     0.14838531     0.14168198
     0.07014765     0.15290777     0.15290777     0.13925618
     0.07256653     0.15735097     0.15735097     0.13675820
     0.07498541     0.16171261     0.16171261     0.13418933
     0.07740430     0.16599041     0.16599041     0.13155090
     0.07982318     0.17018218     0.17018218     0.12884427
     0.08224207     0.17428573     0.17428573     0.12607086
     0.08466095     0.17829894     0.17829894     0.12323210
     0.08707984     0.18221972     0.18221972     0.12032947
     0.08949872     0.18604605     0.18604605     0.11736445
     0.09191760     0.18977594     0.18977594     0.11433860
     0.09433649     0.19340745     0.19340745     0.11125348
     0.09675537     0.19693871     0.19693871     0.10811070
     0.09917426     0.20036789     0.20036789     0.10491187
     0.10159314     0.20369320     0.20369320     0.10165866
     0.10401203     0.20691292     0.20691292     0.09835275
     0.10643091     0.21002539     0.21002539     0.09499586
     0.10884979     0.21302899     0.21302899     0.09158973
     0.11126868     0.21592217     0.21592217     0.08813612
     0.11368756     0.21870342     0.21870342     0.08463682
     0.11610645     0.22137130     0.22137130     0.08109366
     0.11852533     0.22392443     0.22392443     0.07750845
     0.12094422     0.22636149     0.22636149     0.07388307
     0.12336310     0.22868121     0.22868121     0.07021939
     0.12578198     0.23088238     0.23088238     0.06651932
     0.12820087     0.23296388     0.23296388     0.06278476
     0.13061975     0.23492462     0.23492462     0.05901765
     0.13303864     0.23676359     0.23676359     0.05521996
     0.13545752     0.23847982     0.23847982     0.05139364
     0.13787641     0.24007244     0.24007244     0.04754067
     0.14029529     0.24154061     0.24154061     0.04366307
     0.14271418     0.24288358     0.24288358     0.03976283
     0.14513306     0.24410064     0.24410064     0.03584198
     0.14755194     0.24519117     0.24519117     0.03190256
     0.14997083     0.24615461     0.24615461     0.02794659
     0.15238971     0.24699044     0.24699044     0.02397614
     0.15480860     0.24769825     0.24769825     0.01999326
     0.15722748     0.24827766     0.24827766     0.01600001
     0.15964637     0.24872837     0.24872837     0.01199848
     0.16206525     0.24905015     0.24905015     0.00799072
     0.16448413     0.24924283     0.24924283     0.00397882
     0.16690302     0.24930632     0.24930632    -0.00003514
     0.16932190     0.24924057     0.24924057    -0.00404908
     0.17174079     0.24904563     0.24904563    -0.00806093
     0.17415967     0.24872159     0.24872159    -0.01206860
     0.17657856     0.24826862     0.24826862    -0.01607001
     0.17899744     0.24768696     0.24768696    -0.02006309
     0.18141632     0.24697691     0.24697691    -0.02404577
     0.18383521     0.24613883     0.24613883    -0.02801598
     0.18625409     0.24517317     0.24517317    -0.03197168
     0.18867298     0.24408042     0.24408042    -0.03591080
     0.19109186     0.24286114     0.24286114    -0.03983130
     0.19351075     0.24151598     0.24151598    -0.04373116
     0.19592963     0.24004562     0.24004562    -0.04760835
     0.19834851     0.23845083     0.23845083    -0.05146086
     0.20076740     0.23673244     0.23673244    -0.05528670
     0.20318628     0.23489134     0.23489134    -0.05908388
     0.20560517     0.23292848     0.23292848    -0.06285043
     0.20802405     0.23084487     0.23084487    -0.06658440
     0.21044294     0.22864161     0.22864161    -0.07028386
     0.21286182     0.22631982     0.22631982    -0.07394688
     0.21528071     0.22388072     0.22388072    -0.07757157
     0.21769959     0.22132557     0.22132557    -0.08115606
     0.22011847     0.21865569     0.21865569    -0.08469847
     0.22253736     0.21587247     0.21587247    -0.08819698
     0.22495624     0.21297735     0.21297735    -0.09164978
     0.22737513     0.20997183     0.20997183    -0.09505506
     0.22979401     0.20685747     0.20685747    -0.09841107
     0.23221290     0.20363588     0.20363588    -0.10171607
     0.23463178     0.20030874     0.20030874    -0.10496834
     0.23705066     0.19687776     0.19687776    -0.10816621
     0.23946955     0.19334473     0.19334473    -0.11130800
     0.24188843     0.18971147     0.18971147    -0.11439209
     0.24430732     0.18597988     0.18597988    -0.11741689
     0.24672620     0.18215188     0.18215188    -0.12038083
     0.24914509     0.17822946     0.17822946    -0.12328236
     0.25156397     0.17421466     0.17421466    -0.12611999
     0.25398285     0.17010954     0.17010954    -0.12889224
     0.25640174     0.16591625     0.16591625    -0.13159768
     0.25882062     0.16163696     0.16163696    -0.13423491
     0.26123951     0.15727387     0.15727387    -0.13680255
     0.26365839     0.15282927     0.15282927    -0.13929928
     0.26607728     0.14830544     0.14830544    -0.14172380
     0.26849616     0.14370474     0.14370474    -0.14407486
     0.27091504     0.13902954     0.13902954    -0.14635123
     0.27333393     0.13428228     0.13428228    -0.14855174
     0.27575281     0.12946541     0.12946541    -0.15067525
     0.27817170     0.12458143     0.12458143    -0.15272065
     0.28059058     0.11963288     0.11963288    -0.15468689
     0.28300947     0.11462230     0.11462230    -0.15657295
     0.28542835     0.10955232     0.10955232    -0.15837784
     0.28784723     0.10442554     0.10442554    -0.16010064
     0.29026612     0.09924464     0.09924464    -0.16174045
     0.29268500     0.09401229     0.09401229    -0.16329641
     0.29510389     0.08873121     0.08873121    -0.16476773
     0.29752277     0.08340414     0.08340414    -0.16615364
     0.29994166     0.07803383     0.07803383    -0.16745343
     0.30236054     0.07262307     0.07262307    -0.16866641
     0.30477943     0.06717466     0.06717466    -0.16979196
     0.30719831     0.06169144     0.06169144    -0.17082950
     0.30961719     0.05617623     0.05617623    -0.17177848
     0.31203608     0.05063191     0.05063191    -0.17263843
     0.31445496     0.04506134     0.04506134    -0.17340888
     0.31687385     0.03946742     0.03946742    -0.17408945
     0.31929273     0.03385303     0.03385303    -0.17467977
     0.32171162     0.02822110     0.02822110    -0.17517955
     0.32413050     0.02257453     0.02257453    -0.17558852
     0.32654938     0.01691627     0.01691627    -0.17590647
     0.32896827     0.01124924     0.01124924    -0.17613324
     0.33138715     0.00557637     0.00557637    -0.17626870
     0.33380604    -0.00009938    -0.00009938    -0.17631280
     0.33622492    -0.00577508    -0.00577508    -0.17626550
     0.33864381    -0.01144779    -0.01144779    -0.17612684
     0.34106269    -0.01711457    -0.01711457    -0.17589687
     0.34348157    -0.02277247    -0.02277247    -0.17557573
     0.34590046    -0.02841857    -0.02841857    -0.17516358
     0.34831934    -0.03404994    -0.03404994    -0.17466063
     0.35073823    -0.03966366    -0.03966366    -0.17406714
     0.35315711    -0.04525681    -0.04525681    -0.17338342
     0.35557600    -0.05082651    -0.05082651    -0.17260982
     0.35799488    -0.05636986    -0.05636986    -0.17174676
     0.36041376    -0.06188400    -0.06188400    -0.17079466
     0.36283265    -0.06736605    -0.06736605    -0.16975403
     0.36525153    -0.07281318    -0.07281318    -0.16862541
     0.36767042    -0.07822257    -0.07822257    -0.16740938
     0.37008930    -0.08359142    -0.08359142    -0.16610657
     0.37250819    -0.08891693    -0.08891693    -0.16471765
     0.37492707    -0.09419635    -0.09419635    -0.16324335
     0.37734595    -0.09942694    -0.09942694    -0.16168444
     0.37976484    -0.10460600    -0.10460600    -0.16004171
     0.38218372    -0.10973083    -0.10973083    -0.15831602
     0.38460261    -0.11479878    -0.11479878    -0.15650827
     0.38702149    -0.11980722    -0.11980722    -0.15461939
     0.38944038    -0.12475356    -0.12475356    -0.15265036
     0.39185926    -0.12963523    -0.12963523    -0.15060221
     0.39427815    -0.13444970    -0.13444970    -0.14847598
     0.39669703    -0.13919448    -0.13919448    -0.14627279
     0.39911591    -0.14386711    -0.14386711    -0.14399378
     0.40153480    -0.14846516    -0.14846516    -0.14164013
     0.40395368    -0.15298625    -0.15298625    -0.13921306
     0.40637257    -0.15742804    -0.15742804    -0.13671383
     0.40879145    -0.16178823    -0.16178823    -0.13414373
     0.41121034    -0.16606455    -0.16606455    -0.13150409
     0.41362922    -0.17025479    -0.17025479    -0.12879629
     0.41604810    -0.17435678    -0.17435678    -0.12602172
     0.41846699    -0.17836838    -0.17836838    -0.12318183
     0.42088587    -0.18228753    -0.18228753    -0.12027809
     0.42330476    -0.18611219    -0.18611219    -0.11731199
     0.42572364    -0.18984037    -0.18984037    -0.11428509
     0.42814253    -0.19347015    -0.19347015    -0.11119895
     0.43056141    -0.19699963    -0.19699963    -0.10805517
     0.43298029    -0.20042701    -0.20042701    -0.10485537
     0.43539918    -0.20375048    -0.20375048    -0.10160122
     0.43781806    -0.20696835    -0.20696835    -0.09829441
     0.44023695    -0.21007892    -0.21007892    -0.09493664
     0.44265583    -0.21308060    -0.21308060    -0.09152966
     0.44507472    -0.21597183    -0.21597183    -0.08807524
     0.44749360    -0.21875111    -0.21875111    -0.08457516
     0.44991248    -0.22141699    -0.22141699    -0.08103124
     0.45233137    -0.22396810    -0.22396810    -0.07744532
     0.45475025    -0.22640311    -0.22640311    -0.07381925
     0.45716914    -0.22872077    -0.22872077    -0.07015492
     0.45958802    -0.23091986    -0.23091986    -0.06645422
     0.46200691    -0.23299925    -0.23299925    -0.06271908
     0.46442579    -0.23495787    -0.23495787    -0.05895142
     0.46684468    -0.23679469    -0.23679469    -0.05515320
     0.46926356    -0.23850877    -0.23850877    -0.05132640
     0.47168244    -0.24009922    -0.24009922    -0.04747299
     0.47410133    -0.24156520    -0.24156520    -0.04359497
     0.47652021    -0.24290597    -0.24290597    -0.03969436
     0.47893910    -0.24412082    -0.24412082    -0.03577316
     0.48135798    -0.24520913    -0.24520913    -0.03183343
     0.48377687    -0.24617034    -0.24617034    -0.02787719
     0.48619575    -0.24700394    -0.24700394    -0.02390651
     0.48861463    -0.24770950    -0.24770950    -0.01992343
     0.49103352    -0.24828666    -0.24828666    -0.01593002
     0.49345240    -0.24873511    -0.24873511    -0.01192836
     0.49587129    -0.24905463    -0.24905463    -0.00792051
     0.49829017    -0.24924505    -0.24924505    -0.00390855
     0.50070906    -0.24930628    -0.24930628     0.00010542
     0.50312794    -0.24923827    -0.24923827     0.00411935
     0.50554682    -0.24904106    -0.24904106     0.00813114
     0.50796571    -0.24871476    -0.24871476     0.01213871
     0.51038459    -0.24825954    -0.24825954     0.01614000
     0.51280348    -0.24767563    -0.24767563     0.02013291
     0.51522236    -0.24696334    -0.24696334     0.02411539
     0.51764125    -0.24612302    -0.24612302     0.02808537
     0.52006013    -0.24515513    -0.24515513     0.03204079
     0.52247901    -0.24406016    -0.24406016     0.03597960
     0.52489790    -0.24283867    -0.24283867     0.03989976
     0.52731678    -0.24149131    -0.24149131     0.04379924
     0.52973567    -0.24001877    -0.24001877     0.04767602
     0.53215455    -0.23842181    -0.23842181     0.05152808
     0.53457344    -0.23670126    -0.23670126     0.05535343
     0.53699232    -0.23485802    -0.23485802     0.05915009
     0.53941120    -0.23289303    -0.23289303     0.06291609
     0.54183009    -0.23080732    -0.23080732     0.06664947
     0.54424897    -0.22860197    -0.22860197     0.07034831
     0.54666786    -0.22627812    -0.22627812     0.07401068
     0.54908674    -0.22383698    -0.22383698     0.07763468
     0.55150563    -0.22127981    -0.22127981     0.08121845
     0.55392451    -0.21860794    -0.21860794     0.08476011
     0.55634340    -0.21582274    -0.21582274     0.08825783
     0.55876228    -0.21292568    -0.21292568     0.09170981
     0.56118116    -0.20991824    -0.20991824     0.09511425
     0.56360005    -0.20680198    -0.20680198     0.09846938
     0.56601893    -0.20357853    -0.20357853     0.10177347
     0.56843782    -0.20024955    -0.20024955     0.10502481
     0.57085670    -0.19681677    -0.19681677     0.10822170
     0.57327559    -0.19328197    -0.19328197     0.11136250
     0.57569447    -0.18964698    -0.18964698     0.11444557
     0.57811335    -0.18591368    -0.18591368     0.11746931
     0.58053224    -0.18208401    -0.18208401     0.12043217
     0.58295112    -0.17815996    -0.17815996     0.12333260
     0.58537001    -0.17414355    -0.17414355     0.12616909
     0.58778889    -0.17003688    -0.17003688     0.12894019
     0.59020778    -0.16584206    -0.16584206     0.13164444
     0.59262666    -0.16156128    -0.16156128     0.13428046
     0.59504554    -0.15719675    -0.15719675     0.13684687
     0.59746443    -0.15275074    -0.15275074     0.13934235
     0.59988331    -0.14822554    -0.14822554     0.14176560
     0.60230220    -0.14362352    -0.14362352     0.14411536
     0.60472108    -0.13894704    -0.13894704     0.14639041
     0.60713997    -0.13419854    -0.13419854     0.14858959
     0.60955885    -0.12938047    -0.12938047     0.15071174
     0.61197773    -0.12449534    -0.12449534     0.15275576
     0.61439662    -0.11954568    -0.11954568     0.15472061
     0.61681550    -0.11453404    -0.11453404     0.15660525
     0.61923439    -0.10946304    -0.10946304     0.15840871
     0.62165327    -0.10433529    -0.10433529     0.16013007
     0.62407216    -0.09915347    -0.09915347     0.16176841
     0.62649104    -0.09392024    -0.09392024     0.16332290
     0.62890992    -0.08863833    -0.08863833     0.16479273
     0.63132881    -0.08331047    -0.08331047     0.16617714
     0.63374769    -0.07793943    -0.07793943     0.16747541
     0.63616658    -0.07252799    -0.07252799     0.16868687
     0.63858546    -0.06707895    -0.06707895     0.16981088
     0.64100435    -0.06159514    -0.06159514     0.17084688
     0.64342323    -0.05607941    -0.05607941     0.17179431
     0.64584212    -0.05053460    -0.05053460     0.17265269
     0.64826100    -0.04496360    -0.04496360     0.17342157
     0.65067988    -0.03936929    -0.03936929     0.17410056
     0.65309877    -0.03375457    -0.03375457     0.17468930
     0.65551765    -0.02812235    -0.02812235     0.17518749
     0.65793654    -0.02247556    -0.02247556     0.17559487
     0.66035542    -0.01681712    -0.01681712     0.17591122
     0.66277431    -0.01114996    -0.01114996     0.17613639
     0.66519319    -0.00547702    -0.00547702     0.17627026
     0.66761207     0.00019876     0.00019876     0.17631276
     0.67003096     0.00587444     0.00587444     0.17626386
     0.67244984     0.01154707     0.01154707     0.17612360
     0.67486873     0.01721371     0.01721371     0.17589204
     0.67728761     0.02287143     0.02287143     0.17556930
     0.67970650     0.02851730     0.02851730     0.17515555
     0.68212538     0.03414838     0.03414838     0.17465101
     0.68454426     0.03976177     0.03976177     0.17405594
     0.68696315     0.04535454     0.04535454     0.17337065
     0.68938203     0.05092380     0.05092380     0.17259548
     0.69180092     0.05646667     0.05646667     0.17173085
     0.69421980     0.06198026     0.06198026     0.17077720
     0.69663869     0.06746173     0.06746173     0.16973503
     0.69905757     0.07290823     0.07290823     0.16860487
     0.70147645     0.07831693     0.07831693     0.16738731
     0.70389534     0.08368504     0.08368504     0.16608299
     0.70631422     0.08900977     0.08900977     0.16469257
     0.70873311     0.09428836     0.09428836     0.16321679
     0.71115199     0.09951807     0.09951807     0.16165639
     0.71357088     0.10469620     0.10469620     0.16001221
     0.71598976     0.10982005     0.10982005     0.15828508
     0.71840864     0.11488698     0.11488698     0.15647590
     0.72082753     0.11989436     0.11989436     0.15458560
     0.72324641     0.12483959     0.12483959     0.15261518
     0.72566530     0.12972011     0.12972011     0.15056565
     0.72808418     0.13453338     0.13453338     0.14843807
     0.73050307     0.13927692     0.13927692     0.14623354
     0.73292195     0.14394826     0.14394826     0.14395322
     0.73534084     0.14854499     0.14854499     0.14159827
     0.73775972     0.15306471     0.15306471     0.13916992
     0.74017860     0.15750509     0.15750509     0.13666944
     0.74259749     0.16186383     0.16186383     0.13409811
     0.74501637     0.16613866     0.16613866     0.13145726
     0.74743526     0.17032737     0.17032737     0.12874828
     0.74985414     0.17442780     0.17442780     0.12597256
     0.75227303     0.17843780     0.17843780     0.12313154
     0.75469191     0.18235531     0.18235531     0.12022669
     0.75711079     0.18617830     0.18617830     0.11725952
     0.75952968     0.18990477     0.18990477     0.11423157
     0.76194856     0.19353281     0.19353281     0.11114440
     0.76436745     0.19706052     0.19706052     0.10799962
     0.76678633     0.20048609     0.20048609     0.10479886
     0.76920522     0.20380774     0.20380774     0.10154377
     0.77162410     0.20702373     0.20702373     0.09823605
     0.77404298     0.21013242     0.21013242     0.09487741
     0.77646187     0.21313218     0.21313218     0.09146959
     0.77888075     0.21602146     0.21602146     0.08801435
     0.78129964     0.21879876     0.21879876     0.08451349
     0.78371852     0.22146265     0.22146265     0.08096881
     0.78613741     0.22401173     0.22401173     0.07738217
