#           time (fs)    |     mu_x (e.angstrom)   |     mu_y (e.angstrom)   |     mu_z (e.angstrom)   |
        0.000000000000000       -0.000000000000000       -0.000000000000000        0.000000000000000
        0.002418884326505        0.000000003524151       -0.000000005316382       -0.000025139253310
        0.004837768653010       -0.000000005081490        0.000000007665795        0.000018119402334
        0.007256652979515       -0.000000026022322        0.000000039256710        0.000061846826686
        0.009675537306020       -0.000000096972427        0.000000146289907        0.000172831462894
        0.012094421632525       -0.000000199686443        0.000000301241673        0.000284665802315
        0.014513305959030       -0.000000388504716        0.000000586087404        0.000461456635511
        0.016932190285535       -0.000000628137341        0.000000947590880        0.000639391007555
        0.019351074612040       -0.000000986894139        0.000001488801057        0.000878855953368
        0.021769958938545       -0.000001414714173        0.000002134198966        0.001119664898312
        0.024188843265050       -0.000001990383444        0.000003002637252        0.001417506645010
        0.026607727591555       -0.000002652147699        0.000004000957161        0.001716794930547
        0.029026611918060       -0.000003485072955        0.000005257484849        0.002067617495303
        0.031445496244565       -0.000004419508072        0.000006667148974        0.002419888511780
        0.033864380571070       -0.000005542014108        0.000008360530760        0.002817282314111
        0.036283264897575       -0.000006779452156        0.000010227297776        0.003216025062991
        0.038702149224080       -0.000008214636445        0.000012392378619        0.003652669239355
        0.041121033550585       -0.000009775837940        0.000014747568233        0.004090462605453
        0.043539917877090       -0.000011536572129        0.000017403767171        0.004558242997058
        0.045958802203595       -0.000013431766464        0.000020262812685        0.005026875701843
        0.048377686530100       -0.000015519934169        0.000023412973140        0.005517016679005
        0.050796570856605       -0.000017748103079        0.000026774340635        0.006007621042949
        0.053215455183110       -0.000020154095402        0.000030403969462        0.006510829088591
        0.055634339509615       -0.000022702520148        0.000034248474784        0.007014026489701
        0.058053223836120       -0.000025405004967        0.000038325394293        0.007520643255940
        0.060472108162625       -0.000028249092451        0.000042615940766        0.008026698963566
        0.062890992489130       -0.000031215067825        0.000047090369270        0.008526861342516
        0.065309876815635       -0.000034318464994        0.000051772120221        0.009025846233922
        0.067728761142140       -0.000037503600959        0.000056577187548        0.009509650850045
        0.070147645468645       -0.000040818600707        0.000061578178482        0.009991607385187
        0.072566529795150       -0.000044167867514        0.000066630873491        0.010449276824226
        0.074985414121655       -0.000047636102971        0.000071863059196        0.010904386564320
        0.077404298448160       -0.000051084677524        0.000077065596870        0.011326434605026
        0.079823182774665       -0.000054638095268        0.000082426319190        0.011745184514591
        0.082242067101170       -0.000058112531307        0.000087667905486        0.012122577625234
        0.084660951427675       -0.000061674627790        0.000093041758057        0.012495922396562
        0.087079835754180       -0.000065094269337        0.000098200721655        0.012820234799172
        0.089498720080685       -0.000068581568754        0.000103461778791        0.013139752483053
        0.091917604407190       -0.000071860180651        0.000108408030275        0.013403312174150
        0.094336488733695       -0.000075183926805        0.000113422398644        0.013661350490892
        0.096755373060200       -0.000078231510935        0.000118020169773        0.013857373737257
        0.099174257386705       -0.000081299540442        0.000122648813627        0.014047184576503
        0.101593141713210       -0.000084024301532        0.000126759622291        0.014169896576498
        0.104012026039715       -0.000086743061084        0.000130861406067        0.014285756371310
        0.106430910366220       -0.000089053482000        0.000134347186490        0.014330495984092
        0.108849794692725       -0.000091330148467        0.000137782072661        0.014367809861783
        0.111268679019230       -0.000093137131654        0.000140508405540        0.014331116555249
        0.113687563345735       -0.000094881790694        0.000143140740872        0.014286504421196
        0.116106447672240       -0.000096100820053        0.000144980114509        0.014166185870983
        0.118525331998745       -0.000097228656606        0.000146681934466        0.014037548868446
        0.120944216325250       -0.000097781932583        0.000147516965734        0.013832727950409
        0.123363100651755       -0.000098215385319        0.000148171244738        0.013619294054644
        0.125781984978260       -0.000098033885517        0.000147897787934        0.013330434307068
        0.128200869304765       -0.000097704716934        0.000147401562651        0.013032782150855
        0.130619753631270       -0.000096730134993        0.000145931634985        0.012661691134889
        0.133038637957775       -0.000095581369541        0.000144198928783        0.012281751519541
        0.135457522284280       -0.000093767886536        0.000141463383470        0.011831561871277
        0.137876406610785       -0.000091755570785        0.000138427862684        0.011372596786434
        0.140295290937290       -0.000089071415853        0.000134378744313        0.010847725125651
        0.142714175263795       -0.000086166157412        0.000129996040960        0.010314284476601
        0.145133059590300       -0.000082594917755        0.000124608562971        0.009720368709311
        0.147551943916805       -0.000078783163263        0.000118858204016        0.009118225325994
        0.149970828243310       -0.000074324808001        0.000112132294630        0.008462041244277
        0.152389712569815       -0.000069609825065        0.000105019184738        0.007798105115130
        0.154808596896320       -0.000064281412603        0.000096980555514        0.007087463552076
        0.157227481222825       -0.000058683945928        0.000088535968323        0.006369676582206
        0.159646365549330       -0.000052519990417        0.000079236668397        0.005613302716040
        0.162065249875835       -0.000046078568499        0.000069518710573        0.004850515646687
        0.164484134202340       -0.000039131047551        0.000059037139590        0.004057912360423
        0.166903018528845       -0.000031901923035        0.000048130662104        0.003259745799464
        0.169321902855350       -0.000024239915932        0.000036571025534        0.002441043285204
        0.171740787181855       -0.000016296630032        0.000024586967564        0.001617735080930
        0.174159671508360       -0.000008005583168        0.000012078169381        0.000783529126205
        0.176578555834865        0.000000561847855       -0.000000847668238       -0.000054229436245
        0.178997440161370        0.000009381223853       -0.000014153688841       -0.000893047833575
        0.181416324487875        0.000018467494287       -0.000027862431828       -0.001734284326431
        0.183835208814380        0.000027700683479       -0.000041792901218       -0.002566705202056
        0.186254093140885        0.000037186742050       -0.000056104930955       -0.003400343989603
        0.188672977467390        0.000046707218115       -0.000070468949148       -0.004215417582837
        0.191091861793895        0.000056462148541       -0.000085186740090       -0.005030460429824
        0.193510746120400        0.000066133478171       -0.000099778454555       -0.005817476276253
        0.195929630446905        0.000076016687212       -0.000114689875891       -0.006603182596439
        0.198348514773410        0.000085694907253       -0.000129292068706       -0.007351845518388
        0.200767399099915        0.000095558583857       -0.000144174095355       -0.008097909211910
        0.203186283426420        0.000105094810888       -0.000158562121316       -0.008798509212486
        0.205605167752925        0.000114786613526       -0.000173184889449       -0.009495229079718
        0.208024052079430        0.000124029838646       -0.000187130893822       -0.010138802228957
        0.210442936405935        0.000133395761975       -0.000201262027123       -0.010777243032458
        0.212861820732440        0.000142195778437       -0.000214539363976       -0.011355720564428
        0.215280705058945        0.000151083145441       -0.000227948489316       -0.011927861950341
        0.217699589385450        0.000159293552639       -0.000240336255083       -0.012434204971643
        0.220118473711955        0.000167554074319       -0.000252799620140       -0.012933075648400
        0.222537358038460        0.000175035298500       -0.000264087212396       -0.013361393084803
        0.224956242364965        0.000182528140252       -0.000275392313275       -0.013781187889920
        0.227375126691470        0.000189150410367       -0.000285383921700       -0.014126835566866
        0.229794011017975        0.000195745202333       -0.000295334045894       -0.014463013328099
        0.232212895344480        0.000201391418664       -0.000303852981279       -0.014722672388116
        0.234631779670985        0.000206971146806       -0.000312271570440       -0.014972032798894
        0.237050663997490        0.000211539580496       -0.000319164338332       -0.015143765999646
        0.239469548323995        0.000216003295825       -0.000325899076432       -0.015304504075567
        0.241888432650500        0.000219410059207       -0.000331039104673       -0.015387788880770
        0.244307316977005        0.000222675344593       -0.000335965640126       -0.015459525938259
        0.246726201303510        0.000224856575215       -0.000339256574147       -0.015455263703954
        0.249145085630015        0.000226861712483       -0.000342281789441       -0.015439054197851
        0.251563969956520        0.000227775418020       -0.000343660275627       -0.015349555161974
        0.253982854283025        0.000228481202567       -0.000344725024860       -0.015247869129117
        0.256401738609530        0.000228108719237       -0.000344162910515       -0.015076813326141
        0.258820622936035        0.000227499875093       -0.000343244153863       -0.014893494600014
        0.261239507262540        0.000225846898759       -0.000340750042255       -0.014645869237534
        0.263658391589045        0.000223933053857       -0.000337862316695       -0.014386070017643
        0.266077275915550        0.000221030210538       -0.000333482427004       -0.014068084260989
        0.268496160242055        0.000217846399741       -0.000328678604403       -0.013738177032504
        0.270915044568560        0.000213749330680       -0.000322496899157       -0.013357155539681
        0.273333928895065        0.000209356002797       -0.000315868195929       -0.012964623736910
        0.275752813221570        0.000204144948361       -0.000308005752267       -0.012528880662423
        0.278171697548075        0.000198627462748       -0.000299680968919       -0.012082189846827
        0.280590581874580        0.000192406339153       -0.000290294584684       -0.011600885382497
        0.283009466201085        0.000185873947395       -0.000280438568547       -0.011109337055498
        0.285428350527590        0.000178768920311       -0.000269718609370       -0.010592318893026
        0.287847234854095        0.000171353238767       -0.000258529949258       -0.010065889379524
        0.290266119180600        0.000163510808113       -0.000246697458290       -0.009523521757432
        0.292685003507105        0.000155363797495       -0.000234405435544       -0.008972688871896
        0.295103887833610        0.000146948417981       -0.000221708542907       -0.008415672103451
        0.297522772160115        0.000138239896506       -0.000208569378893       -0.007851232541585
        0.299941656486620        0.000129431168487       -0.000195279063006       -0.007290416105933
        0.302360540813125        0.000120345895257       -0.000181571518371       -0.006723296686777
        0.304779425139630        0.000111335370044       -0.000167976785789       -0.006169489099027
        0.307198309466135        0.000102069744922       -0.000153997181275       -0.005610555111281
        0.309617193792640        0.000093057397653       -0.000140399745118       -0.005074333865943
        0.312036078119145        0.000083815832864       -0.000126456487266       -0.004534197845592
        0.314454962445650        0.000075006264155       -0.000113165036591       -0.004025722749612
        0.316873846772155        0.000065997290928       -0.000099572743815       -0.003514557031680
        0.319292731098660        0.000057595725613       -0.000086896906974       -0.003043390207412
        0.321711615425165        0.000049027906208       -0.000073970242121       -0.002570746552072
        0.324130499751670        0.000041236063426       -0.000062214356090       -0.002145682296923
        0.326549384078175        0.000033313784686       -0.000050261680316       -0.001720321789410
        0.328968268404680        0.000026325698132       -0.000039718484900       -0.001349229328594
        0.331387152731185        0.000019244927126       -0.000029035454397       -0.000978965594501
        0.333806037057690        0.000013242797440       -0.000019979834935       -0.000668647558502
        0.336224921384195        0.000007186882707       -0.000010843066472       -0.000360206123403
        0.338643805710700        0.000002337045533       -0.000003525971062       -0.000116275325305
        0.341062690037205       -0.000002527351244        0.000003813095691        0.000124828316677
        0.343481574363710       -0.000006078258060        0.000009170438523        0.000298051532800
        0.345900458690215       -0.000009605015422        0.000014491354382        0.000467612888644
        0.348319343016720       -0.000011733603738        0.000017702794246        0.000567180803655
        0.350738227343225       -0.000013800696384        0.000020821465155        0.000662384490684
        0.353157111669730       -0.000014410020432        0.000021740746379        0.000686778129552
        0.355575995996235       -0.000014922698941        0.000022514230465        0.000706251616362
        0.357994880322740       -0.000013945015484        0.000021039156146        0.000655411703428
        0.360413764649245       -0.000012838536432        0.000019369782452        0.000599253595291
        0.362832648975750       -0.000010237565769        0.000015445625415        0.000474585655779
        0.365251533302255       -0.000007479405870        0.000011284334146        0.000344367880616
        0.367670417628760       -0.000003252035202        0.000004906406575        0.000148721251636
        0.370089301955265        0.000001156468452       -0.000001744776535       -0.000052535038999
        0.372508186281770        0.000006979088249       -0.000010529468691       -0.000314914063869
        0.374927070608275        0.000013001719888       -0.000019615896365       -0.000582788599160
        0.377345954934780        0.000020353722332       -0.000030707971877       -0.000906328807109
        0.379764839261285        0.000027919028132       -0.000042121833461       -0.001235077563208
        0.382183723587790        0.000036700050498       -0.000055369867143       -0.001612978904777
        0.384602607914295        0.000045701663051       -0.000068950678507       -0.001995633535267
        0.387021492240800        0.000055777750908       -0.000084152566281       -0.002419985680705
        0.389440376567305        0.000066075409573       -0.000099688709631       -0.002848475377396
        0.391859260893810        0.000077280607206       -0.000116594068388       -0.003310396764814
        0.394278145220315        0.000088701872962       -0.000133825379852       -0.003775690504598
        0.396697029546820        0.000100840486849       -0.000152138962726       -0.004265485519811
        0.399115913873325        0.000113183136516       -0.000170760344875       -0.004757752276296
        0.401534798199830        0.000126032645437       -0.000190146432037       -0.005265083865329
        0.403953682526335        0.000139067716364       -0.000209812447682       -0.005773868027412
        0.406372566852840        0.000152382288302       -0.000229900152493       -0.006287942749411
        0.408791451179345        0.000165857731057       -0.000250230535668       -0.006802351699093
        0.411210335505850        0.000179372294062       -0.000270619946480       -0.007312113985322
        0.413629219832355        0.000193017177623       -0.000291205946826       -0.007821014549552
        0.416048104158860        0.000206451979587       -0.000311475006233       -0.008315346748104
        0.418466988485365        0.000219981181223       -0.000331886464486       -0.008807567058709
        0.420885872811870        0.000233046762223       -0.000351598470846       -0.009275491718090
        0.423304757138375        0.000246166063060       -0.000371391506177       -0.009740024894533
        0.425723641464880        0.000258568553909       -0.000390103107098       -0.010170905675923
        0.428142525791385        0.000270980051141       -0.000408828282017       -0.010597111687684
        0.430561410117890        0.000282426703154       -0.000426097816515       -0.010980849294871
        0.432980294444395        0.000293834441470       -0.000443308632324       -0.011358651369736
        0.435399178770900        0.000304039285573       -0.000458704667975       -0.011685870951770
        0.437818063097405        0.000314155003569       -0.000473966233592       -0.012005942969054
        0.440236947423910        0.000322844531745       -0.000487076137290       -0.012268169579124
        0.442655831750415        0.000331393414274       -0.000499973846944       -0.012522111024919
        0.445074716076920        0.000338312173264       -0.000510412223235       -0.012711929910422
        0.447493600403425        0.000345038497816       -0.000520560274282       -0.012892425172490
        0.449912484729930        0.000349954483936       -0.000527977103678       -0.013003623922121
        0.452331369056435        0.000354627048479       -0.000535026684755       -0.013104582962135
        0.454750253382940        0.000357336793612       -0.000539114996214       -0.013132272842132
        0.457169137709445        0.000359754014806       -0.000542761978223       -0.013148950598535
        0.459588022035950        0.000360087256927       -0.000543264894989       -0.013089664767074
        0.462006906362455        0.000360081831394       -0.000543256863059       -0.013018757007566
        0.464425790688960        0.000357905668545       -0.000539973869417       -0.012870523697643
        0.466844675015465        0.000355348695795       -0.000536116342922       -0.012710237450257
        0.469263559341970        0.000350571130075       -0.000528908630944       -0.012472626650452
        0.471682443668475        0.000345375603799       -0.000521070330879       -0.012222723789092
