#           time (fs)    |     mu_x (e.angstrom)   |     mu_y (e.angstrom)   |     mu_z (e.angstrom)   |
        0.000000000000000       -0.000000000000000       -0.000000000000000        0.000000000000000
        0.002418884326505        0.000000010046843        0.000000013364588        0.000092684385387
        0.004837768653010        0.000000040189894        0.000000053457671        0.000185367101233
        0.007256652979515        0.000000089939076        0.000000119633435        0.000276549093603
        0.009675537306020        0.000000165888773        0.000000220653170        0.000382548128860
        0.012094421632525        0.000000263203169        0.000000350098728        0.000485563665807
        0.014513305959030        0.000000401969197        0.000000534670147        0.000617950790292
        0.016932190285535        0.000000566058190        0.000000752936404        0.000745881583471
        0.019351074612040        0.000000795542692        0.000001058172873        0.000917210807820
        0.021769958938545        0.000001056398614        0.000001405153376        0.001082616308875
        0.024188843265050        0.000001414555175        0.000001881537888        0.001304664462491
        0.026607727591555        0.000001812052217        0.000002410270215        0.001519322553697
        0.029026611918060        0.000002345723996        0.000003120109878        0.001802842815687
        0.031445496244565        0.000002928399451        0.000003895154417        0.002077503632415
        0.033864380571070        0.000003691862477        0.000004910642693        0.002431996219284
        0.036283264897575        0.000004515407443        0.000006006074894        0.002776153304585
        0.038702149224080        0.000005568651889        0.000007407005225        0.003209657246449
        0.041121033550585        0.000006694145350        0.000008904066379        0.003631339962919
        0.043539917877090        0.000008100933812        0.000010775249049        0.004150249563556
        0.045958802203595        0.000009592860074        0.000012759708761        0.004655840347920
        0.048377686530100        0.000011418607247        0.000015188150021        0.005264749527960
        0.050796570856605        0.000013342702024        0.000017747440556        0.005858829174475
        0.053215455183110        0.000015652224661        0.000020819349004        0.006560406447198
        0.055634339509615        0.000018073199415        0.000024039537493        0.007245630152803
        0.058053223836120        0.000020928388941        0.000027837227353        0.008040526485194
        0.060472108162625        0.000023907586457        0.000031799896315        0.008817532889337
        0.062890992489130        0.000027365058968        0.000036398660450        0.009704324164890
        0.065309876815635        0.000030958095357        0.000041177770066        0.010571679077880
        0.067728761142140        0.000035066875038        0.000046642797270        0.011546844310692
        0.070147645468645        0.000039321324436        0.000052301604339        0.012501020254845
        0.072566529795150        0.000044120616448        0.000058685015568        0.013558956115937
        0.074985414121655        0.000049073794595        0.000065273123949        0.014594348213172
        0.077404298448160        0.000054590902376        0.000072611200695        0.015727419829532
        0.079823182774665        0.000060267803940        0.000080161816362        0.016836397967050
        0.082242067101170        0.000066516243565        0.000088472491349        0.018035025351636
        0.084660951427675        0.000072927685594        0.000096999951908        0.019208021954300
        0.087079835754180        0.000079905546403        0.000106280627732        0.020460800831483
        0.089498720080685        0.000087046566704        0.000115778271491        0.021686432975603
        0.091917604407190        0.000094735162878        0.000126004026843        0.022980288191478
        0.094336488733695        0.000102583717407        0.000136442460278        0.024245512220299
        0.096755373060200        0.000110946569687        0.000147564696077        0.025565881380852
        0.099174257386705        0.000119462567423        0.000158890511042        0.026856177636911
        0.101593141713210        0.000128444747779        0.000170836080272        0.028187222108676
        0.104012026039715        0.000137569455001        0.000182971063578        0.029486806891836
        0.106430910366220        0.000147097319913        0.000195641919104        0.030811646838146
        0.108849794692725        0.000156753158568        0.000208482787391        0.032103708239145
        0.111268679019230        0.000166734488842        0.000221756171647        0.033404677958262
        0.113687563345735        0.000176825245803        0.000235174853948        0.034671631813840
        0.116106447672240        0.000187149802615        0.000248904043375        0.035930551299959
        0.118525331998745        0.000197561258366        0.000262748522658        0.037154313173760
        0.120944216325250        0.000208101756702        0.000276764128351        0.038352771543944
        0.123363100651755        0.000218702733361        0.000290859841786        0.039515040363066
        0.125781984978260        0.000229316225379        0.000304971656197        0.040634686586865
        0.128200869304765        0.000239960045302        0.000319123442247        0.041717235361521
        0.130619753631270        0.000250489697501        0.000333122810215        0.042740071598807
        0.133038637957775        0.000261016035030        0.000347117379047        0.043725040525089
        0.135457522284280        0.000271293274684        0.000360780060144        0.044633713323126
        0.137876406610785        0.000281530375210        0.000374388952572        0.045503900518275
        0.140295290937290        0.000291377373474        0.000387478430962        0.046281985142110
        0.142714175263795        0.000301144605890        0.000400461420363        0.047021130288373
        0.145133059590300        0.000310377057433        0.000412732608312        0.047653403558361
        0.147551943916805        0.000319487758616        0.000424841489985        0.048246459834874
        0.149970828243310        0.000327917910772        0.000436044762001        0.048719157019855
        0.152389712569815        0.000336182473858        0.000447027465369        0.049152546880026
        0.154808596896320        0.000343622352244        0.000456912951959        0.049453598441163
        0.157227481222825        0.000350851504535        0.000466517903108        0.049715449042708
        0.159646365549330        0.000357116276950        0.000474839966368        0.049834693337234
        0.162065249875835        0.000363124488249        0.000482820621839        0.049915047749179
        0.164484134202340        0.000368035904620        0.000489342429817        0.049844416180111
        0.166903018528845        0.000372644862842        0.000495461897403        0.049735416870649
        0.169321902855350        0.000376034706051        0.000499960010368        0.049469088401849
        0.171740787181855        0.000379076794182        0.000503995669114        0.049165129946682
        0.174159671508360        0.000380790274915        0.000506264548806        0.048699652385577
        0.176578555834865        0.000382111981823        0.000508012578473        0.048197500821617
        0.178997440161370        0.000382011010141        0.000507868930933        0.047531876796841
        0.181416324487875        0.000381476207494        0.000507148661015        0.046830753573022
        0.183835208814380        0.000379442474722        0.000504435524971        0.045966489692843
        0.186254093140885        0.000376935493293        0.000501093514885        0.045068118730127
        0.188672977467390        0.000372873299993        0.000495684010670        0.044009236991142
        0.191091861793895        0.000368301741054        0.000489597776046        0.042917853948769
        0.193510746120400        0.000362140510340        0.000481398434834        0.041670865063563
        0.195929630446905        0.000355437731466        0.000472479739814        0.040393188508907
        0.198348514773410        0.000347134151661        0.000461433339292        0.038967027426935
        0.200767399099915        0.000338261371234        0.000449630981385        0.037512192212505
        0.203186283426420        0.000327801117788        0.000435718821955        0.035918116710553
        0.205605167752925        0.000316749088587        0.000421020844154        0.034297570464084
        0.208024052079430        0.000304148082175        0.000404264409045        0.032549024271830
        0.210442936405935        0.000290938291650        0.000386699683462        0.030776388494356
        0.212861820732440        0.000276243457372        0.000367161636733        0.028888830987188
        0.215280705058945        0.000260928820329        0.000346800774819        0.026979728820061
        0.217699589385450        0.000244218321735        0.000324585262875        0.024970433846392
        0.220118473711955        0.000226883340177        0.000301540819104        0.022942287102170
        0.222537358038460        0.000208266271342        0.000276793053849        0.020830114007246
        0.224956242364965        0.000189026645807        0.000251219002466        0.018701912552581
        0.227375126691470        0.000168642174645        0.000224124117338        0.016507052907120
        0.229794011017975        0.000147643861520        0.000196214595025        0.014299099930167
        0.232212895344480        0.000125659827859        0.000166995778716        0.012042803862862
        0.234631779670985        0.000103077547512        0.000136983099706        0.009776440945936
        0.237050663997490        0.000079688529798        0.000105899025997        0.007480727307318
        0.239469548323995        0.000055723740874        0.000074050989929        0.005178043551221
        0.241888432650500        0.000031148615733        0.000041392575650        0.002865398397238
        0.244307316977005        0.000006026981281        0.000008009102065        0.000548928101388
        0.246726201303510       -0.000019493989867       -0.000025904361654       -0.001758003825997
        0.249145085630015       -0.000045525608717       -0.000060495225060       -0.004065590238088
        0.251563969956520       -0.000071734122269       -0.000095320510553       -0.006344316242277
        0.253982854283025       -0.000098411099886       -0.000130767146273       -0.008620523252504
        0.256401738609530       -0.000125034529366       -0.000166142026755       -0.010849010797913
        0.258820622936035       -0.000152078282459       -0.000202074301139       -0.013071825945610
        0.261239507262540       -0.000178833714025       -0.000237622907884       -0.015228803371011
        0.263658391589045       -0.000205955819885       -0.000273657638378       -0.017376997740062
        0.266077275915550       -0.000232554336654       -0.000308996148553       -0.019442242901226
        0.268496160242055       -0.000259460894077       -0.000344742893652       -0.021495659276988
        0.270915044568560       -0.000285612036113       -0.000379485452016       -0.023450271643723
        0.273333928895065       -0.000312008194669       -0.000414552525504       -0.025390095871790
        0.275752813221570       -0.000337424517041       -0.000448317297181       -0.027216747869973
        0.278171697548075       -0.000363019096012       -0.000482317902376       -0.029025759218113
        0.280590581874580       -0.000387420744278       -0.000514733149738       -0.030708922940575
        0.283009466201085       -0.000411930859684       -0.000547291525479       -0.032371719601920
        0.285428350527590       -0.000435050080537       -0.000578001599918       -0.033897865407550
        0.287847234854095       -0.000458205697196       -0.000608759067974       -0.035401061681908
        0.290266119180600       -0.000479791201948       -0.000637430207115       -0.036758825653614
        0.292685003507105       -0.000501339527612       -0.000666051010652       -0.038091217797997
        0.295103887833610       -0.000521160627570       -0.000692376833294       -0.039271535529862
        0.297522772160115       -0.000540870267753       -0.000718553658066       -0.040424233771562
        0.299941656486620       -0.000558720703512       -0.000742260252983       -0.041420438495399
        0.302360540813125       -0.000576385498723       -0.000765719326929       -0.042386963243053
        0.304779425139630       -0.000592086889774       -0.000786569837404       -0.043194846875948
        0.307198309466135       -0.000607529361472       -0.000807075510369       -0.043971187737140
        0.309617193792640       -0.000620934208339       -0.000824874124023       -0.044589024025109
        0.312036078119145       -0.000634008545870       -0.000842232837267       -0.045173660833989
        0.314454962445650       -0.000645002724108       -0.000856828100216       -0.045602190373113
        0.316873846772155       -0.000655597252212       -0.000870891665047       -0.045996076038646
        0.319292731098660       -0.000664101945906       -0.000882179050509       -0.046238453564134
        0.321711615425165       -0.000672141020866       -0.000892847166766       -0.046444959159283
        0.324130499751670       -0.000678114052706       -0.000900770840792       -0.046506664095336
        0.326549384078175       -0.000683559344775       -0.000907992798672       -0.046531487209987
        0.328968268404680       -0.000686995870057       -0.000912546539497       -0.046420199059353
        0.331387152731185       -0.000689847000305       -0.000916322062266       -0.046271237025652
        0.333806037057690       -0.000690779543324       -0.000917549304597       -0.045996677738234
        0.336224921384195       -0.000691074054235       -0.000917928504751       -0.045683867896851
        0.338643805710700       -0.000689571877157       -0.000915921495901       -0.045257613882803
        0.341062690037205       -0.000687384528154       -0.000913003933159       -0.044792743583863
        0.343481574363710       -0.000683552334481       -0.000907902004026       -0.044228010519927
        0.345900458690215       -0.000678993725666       -0.000901834849761       -0.043624500034354
        0.348319343016720       -0.000672969712616       -0.000893821819969       -0.042935904045196
        0.350738227343225       -0.000666184252334       -0.000884797149178       -0.042208565993680
        0.353157111669730       -0.000658137538593       -0.000874097901910       -0.041411865165692
        0.355575995996235       -0.000649300782697       -0.000862349150132       -0.040576644446207
        0.357994880322740       -0.000639428249895       -0.000849225428044       -0.039688464943608
        0.360413764649245       -0.000628743652527       -0.000835023066617       -0.038762163448505
        0.362832648975750       -0.000617266250210       -0.000819768555421       -0.037799714745427
        0.365251533302255       -0.000604961377399       -0.000803415053677       -0.036799705400286
        0.367670417628760       -0.000592119951969       -0.000786349834182       -0.035780489313760
        0.370089301955265       -0.000578442220074       -0.000768173991451       -0.034724424138304
        0.372508186281770       -0.000564492937991       -0.000749638453874       -0.033665942442436
        0.374927070608275       -0.000549704948818       -0.000729989197120       -0.032571459425801
        0.377345954934780       -0.000534914393041       -0.000710337522933       -0.031490924845179
        0.379764839261285       -0.000519288946140       -0.000689577277296       -0.030375358441738
        0.382183723587790       -0.000503928972193       -0.000669170603639       -0.029289413761321
        0.384602607914295       -0.000487743842148       -0.000647668352784       -0.028169513748345
        0.387021492240800       -0.000472086286121       -0.000626867742246       -0.027093963638371
        0.389440376567305       -0.000455618858513       -0.000604991903084       -0.025985626933772
        0.391859260893810       -0.000439930193659       -0.000584151247299       -0.024935186873354
        0.394278145220315       -0.000423452057560       -0.000562262489099       -0.023853206692315
        0.396697029546820       -0.000407988098719       -0.000541721477944       -0.022841273087478
        0.399115913873325       -0.000391759696040       -0.000520165619020       -0.021799109524329
        0.401534798199830       -0.000376760451936       -0.000500242908157       -0.020837554759790
        0.403953682526335       -0.000361025884557       -0.000479344024018       -0.019847130520511
        0.406372566852840       -0.000346710656944       -0.000460330732016       -0.018946126265074
        0.408791451179345       -0.000331692751296       -0.000440384607113       -0.018017650852185
        0.411210335505850       -0.000318255576983       -0.000422538269414       -0.017185522462322
        0.413629219832355       -0.000304151302601       -0.000403806320380       -0.016327347634672
        0.416048104158860       -0.000291756829595       -0.000387345420953       -0.015570461977490
        0.418466988485365       -0.000278733163161       -0.000370049212535       -0.014788970780735
        0.420885872811870       -0.000267513045609       -0.000355148405323       -0.014111659235171
        0.423304757138375       -0.000255703365206       -0.000339464871158       -0.013411190333569
        0.425723641464880       -0.000245753253557       -0.000326250992449       -0.012815708136923
        0.428142525791385       -0.000235254339387       -0.000312308461610       -0.012198516583317
        0.430561410117890       -0.000226631532393       -0.000300857421438       -0.011685039079456
        0.432980294444395       -0.000217501240214       -0.000288732538368       -0.011151294048202
        0.435399178770900       -0.000210223054218       -0.000279067164267       -0.010717949774533
        0.437818063097405       -0.000202478716372       -0.000268782774666       -0.010265769162342
        0.440236947423910       -0.000196521614981       -0.000260871664692       -0.009908709095668
        0.442655831750415       -0.000190139211351       -0.000252395723289       -0.009534230278608
        0.445074716076920       -0.000185438725263       -0.000246153147593       -0.009247731955802
        0.447493600403425       -0.000180352853030       -0.000239398685899       -0.008945217387442
        0.449912484729930       -0.000176804305764       -0.000234685557529       -0.008721822035820
        0.452331369056435       -0.000172908962635       -0.000229511730826       -0.008483797791935
        0.454750253382940       -0.000170369003373       -0.000226137647198       -0.008314478055842
        0.457169137709445       -0.000167519184344       -0.000222351860686       -0.008131902884842
        0.459588022035950       -0.000165808114409       -0.000220078197656       -0.008006258228289
        0.462006906362455       -0.000163822207264       -0.000217439291967       -0.007868720162275
        0.464425790688960       -0.000162727072037       -0.000215983312955       -0.007775196570584
        0.466844675015465       -0.000161390022072       -0.000214205769711       -0.007671133697794
        0.469263559341970       -0.000160668425792       -0.000213245693289       -0.007597263901127
        0.471682443668475       -0.000159735625769       -0.000212004802225       -0.007514205503399
