#           time (fs)    |     mu_x (e.angstrom)   |     mu_y (e.angstrom)   |     mu_z (e.angstrom)   |
        0.000000000000000       -0.000000000000000       -0.000000000000000        0.000000000000000
        0.002418884326505        0.000000005057575        0.000000010850165       -0.000089216860011
        0.004837768653010        0.000000020229119        0.000000043397355       -0.000178435771981
        0.007256652979515        0.000000045269630        0.000000097117126       -0.000266226609613
        0.009675537306020        0.000000076669968        0.000000164479418       -0.000338190685169
        0.012094421632525        0.000000115421451        0.000000247613600       -0.000407327429447
        0.014513305959030        0.000000151335918        0.000000324659611       -0.000445090689311
        0.016932190285535        0.000000189882257        0.000000407354069       -0.000478712593627
        0.019351074612040        0.000000211216175        0.000000453120137       -0.000465968232115
        0.021769958938545        0.000000228386100        0.000000489956331       -0.000447895854824
        0.024188843265050        0.000000209207009        0.000000448809791       -0.000369280790485
        0.026607727591555        0.000000177168287        0.000000380079525       -0.000284318152683
        0.029026611918060        0.000000085443664        0.000000183301355       -0.000125701497629
        0.031445496244565       -0.000000029510961       -0.000000063307129        0.000040078520306
        0.033864380571070       -0.000000230997196       -0.000000495556143        0.000291327782844
        0.036283264897575       -0.000000467489936       -0.000001002898620        0.000550319465146
        0.038702149224080       -0.000000820062728       -0.000001759272524        0.000905089962564
        0.041121033550585       -0.000001220518030       -0.000002618361934        0.001267916508989
        0.043539917877090       -0.000001768402433       -0.000003793736885        0.001735141075974
        0.045958802203595       -0.000002377806453       -0.000005101082629        0.002210445965459
        0.048377686530100       -0.000003166811909       -0.000006793735112        0.002796920836915
        0.050796570856605       -0.000004031371921       -0.000008648468147        0.003391192207503
        0.053215455183110       -0.000005107499166       -0.000010957087715        0.004101431758316
        0.055634339509615       -0.000006273232983       -0.000013457936099        0.004818862668770
        0.058053223836120       -0.000007681234985       -0.000016478540179        0.005654992073666
        0.060472108162625       -0.000009192522191       -0.000019720723374        0.006497378929373
        0.062890992489130       -0.000010974451800       -0.000023543544253        0.007459066499739
        0.065309876815635       -0.000012872579664       -0.000027615656747        0.008425747304437
        0.067728761142140       -0.000015066357174       -0.000032322071992        0.009510177613976
        0.070147645468645       -0.000017388094532       -0.000037303027617        0.010598011060982
        0.072566529795150       -0.000020026128253       -0.000042962604831        0.011799899308831
        0.074985414121655       -0.000022802360384       -0.000048918712449        0.013003285060936
        0.077404298448160       -0.000025910252517       -0.000055586437431        0.014314932450296
        0.079823182774665       -0.000029164709066       -0.000062568676524        0.015625872287414
        0.082242067101170       -0.000032760077704       -0.000070282430648        0.017037261530983
        0.084660951427675       -0.000036508184084       -0.000078323991751        0.018445460380214
        0.087079835754180       -0.000040599630023       -0.000087102339705        0.019944389792105
        0.089498720080685       -0.000044847510482       -0.000096216489665        0.021437395007382
        0.091917604407190       -0.000049433754806       -0.000106056832744        0.023009649015685
        0.094336488733695       -0.000054177412439       -0.000116235158551        0.024573025654583
        0.096755373060200       -0.000059246627520       -0.000127112301572        0.026202578980030
        0.099174257386705       -0.000064471323094       -0.000138323379136        0.027820118244079
        0.101593141713210       -0.000070000675874       -0.000150188550867        0.029489370448214
        0.104012026039715       -0.000075680523428       -0.000162377076714        0.031143327920038
        0.106430910366220       -0.000081635945570       -0.000175157434674        0.032833364540000
        0.108849794692725       -0.000087733738407       -0.000188243849341        0.034504724374539
        0.111268679019230       -0.000094069933372       -0.000201842490082        0.036195600439042
        0.113687563345735       -0.000100537209413       -0.000215723112083        0.037864361254796
        0.116106447672240       -0.000107197901639       -0.000230019597842        0.039535402623754
        0.118525331998745       -0.000113975252223       -0.000244567276787        0.041180880499929
        0.120944216325250       -0.000120893678618       -0.000259418678857        0.042810998194067
        0.123363100651755       -0.000127911299799       -0.000274483965691        0.044412141915764
        0.125781984978260       -0.000135010938704       -0.000289726414259        0.045980154406269
        0.128200869304765       -0.000142189419051       -0.000305139236015        0.047515867916311
        0.130619753631270       -0.000149384946822       -0.000320589955717        0.049000826230832
        0.133038637957775       -0.000156636280745       -0.000336161771690        0.050450293145670
        0.135457522284280       -0.000163834741278       -0.000351621571997        0.051831803616861
        0.137876406610785       -0.000171063552103       -0.000367147978203        0.053174808646216
        0.140295290937290       -0.000178165720028       -0.000382404158114        0.054433348182204
        0.142714175263795       -0.000185270672513       -0.000397667897413        0.055650590357165
        0.145133059590300       -0.000192172586560       -0.000412497515056        0.056767809248305
        0.147551943916805       -0.000199047964418       -0.000427271841542        0.057841202008726
        0.149970828243310       -0.000205642603667       -0.000441445291275        0.058800209498706
        0.152389712569815       -0.000212180023952       -0.000455497629796        0.059713162914836
        0.154808596896320       -0.000218359096405       -0.000468782462472        0.060498791052717
        0.157227481222825       -0.000224449329497       -0.000481878297372        0.061236471753893
        0.159646365549330       -0.000230105139763       -0.000494043213674        0.061835513401598
        0.162065249875835       -0.000235640001125       -0.000505950135405        0.062385078151194
        0.164484134202340       -0.000240667361951       -0.000516769077730        0.062786495442388
        0.166903018528845       -0.000245541639972       -0.000527260911785        0.063137294726766
        0.169321902855350       -0.000249839791036       -0.000536517177128        0.063332394750642
        0.171740787181855       -0.000253953174071       -0.000545378117022        0.063476143233577
        0.174159671508360       -0.000257427670849       -0.000552868411731        0.063458718243280
        0.176578555834865       -0.000260686636111       -0.000559897076495        0.063389629468244
        0.178997440161370       -0.000263251171701       -0.000565435433725        0.063156059479741
        0.181416324487875       -0.000265570798933       -0.000570448770617        0.062870942772072
        0.183835208814380       -0.000267148922610       -0.000573870252764        0.062420259016489
        0.186254093140885       -0.000268454596436       -0.000576707207690        0.061918577136840
        0.188672977467390       -0.000268981294204       -0.000577871319047        0.061252485448029
        0.191091861793895       -0.000269210260769       -0.000578396200438        0.060536372168102
        0.193510746120400       -0.000268633365467       -0.000577189939748        0.059659236017885
        0.195929630446905       -0.000267736111328       -0.000575295406377        0.058733473419692
        0.198348514773410       -0.000266017512638       -0.000571635894759        0.057652256946035
        0.200767399099915       -0.000263958936857       -0.000567245504059        0.056524212876906
        0.203186283426420       -0.000261075565066       -0.000561082130888        0.055248384875329
        0.205605167752925       -0.000257835919006       -0.000554152391714        0.053927911612901
        0.208024052079430       -0.000253780480290       -0.000545468429308        0.052469312069120
        0.210442936405935       -0.000249356053670       -0.000535990311587        0.050968607853887
        0.212861820732440       -0.000244137499076       -0.000524803958858        0.049341279176514
        0.215280705058945       -0.000238541035317       -0.000512803822089        0.047674714844861
        0.217699589385450       -0.000232184750366       -0.000499168647449        0.045894700502169
        0.220118473711955       -0.000225445579081       -0.000484708560354        0.044078613991343
        0.222537358038460       -0.000217993285967       -0.000468713325049        0.042163727756965
        0.224956242364965       -0.000210157165522       -0.000451890759648        0.040216189746726
        0.227375126691470       -0.000201666535056       -0.000433658613977        0.038185759208269
        0.229794011017975       -0.000192795203393       -0.000414605508817        0.036126313604507
        0.232212895344480       -0.000183339179185       -0.000394292565315        0.034000901979286
        0.234631779670985       -0.000173509616398       -0.000373173764231        0.031850285325852
        0.237050663997490       -0.000163175459056       -0.000350967063559        0.029651395953468
        0.239469548323995       -0.000152478870546       -0.000327978148055        0.027431240174020
        0.241888432650500       -0.000141366934890       -0.000304093044866        0.025181008311227
        0.244307316977005       -0.000129907469109       -0.000279457589689        0.022913531428228
        0.246726201303510       -0.000118129732437       -0.000254134596867        0.020634408153696
        0.249145085630015       -0.000106022952250       -0.000228100889463        0.018342097803098
        0.251563969956520       -0.000093701316450       -0.000201602029730        0.016056530945489
        0.253982854283025       -0.000081072447854       -0.000174439304723        0.013761825600566
        0.256401738609530       -0.000068336842566       -0.000147044028373        0.011491942631370
        0.258820622936035       -0.000055318828873       -0.000119038277872        0.009216915466314
        0.261239507262540       -0.000042305146883       -0.000091039014237        0.006984213248859
        0.263658391589045       -0.000029036540349       -0.000062488443420        0.004750263512036
        0.266077275915550       -0.000015884439865       -0.000034185861330        0.002575309671015
        0.268496160242055       -0.000002507166175       -0.000005396066220        0.000402866300453
        0.270915044568560        0.000010642222480        0.000022905874893       -0.001694983225508
        0.273333928895065        0.000023985188714        0.000051626924393       -0.003786741223399
        0.275752813221570        0.000036991612182        0.000079626046150       -0.005789604156725
        0.278171697548075        0.000050158620555        0.000107973130221       -0.007783006326275
        0.280590581874580        0.000062885065911        0.000135374139685       -0.009674711603328
        0.283009466201085        0.000075738170205        0.000163049928672       -0.011553829765426
        0.285428350527590        0.000088053200579        0.000189569463648       -0.013320127118176
        0.287847234854095        0.000100460503048        0.000216289581839       -0.015070980719258
        0.290266119180600        0.000112240523011        0.000241661105095       -0.016699719191390
        0.292685003507105        0.000124078440458        0.000267159025976       -0.018310449252537
        0.295103887833610        0.000135209849473        0.000291137477919       -0.019791722056812
        0.297522772160115        0.000146365259369        0.000315169160453       -0.021252731205639
        0.299941656486620        0.000156746452965        0.000337535282963       -0.022578984868650
        0.302360540813125        0.000167118679422        0.000359883461962       -0.023883041479140
        0.304779425139630        0.000176661859910        0.000380447710866       -0.025049147788212
        0.307198309466135        0.000186164461569        0.000400925759574       -0.026191452823926
        0.309617193792640        0.000194797222973        0.000419531729561       -0.027194742679347
        0.312036078119145        0.000203359547896        0.000437987019185       -0.028172958424303
        0.314454962445650        0.000211026203309        0.000454514312719       -0.029013217298994
        0.316873846772155        0.000218594679592        0.000470831001633       -0.029827457758347
        0.319292731098660        0.000225257303316        0.000485197482451       -0.030506883066781
        0.321711615425165        0.000231796438436        0.000499298677110       -0.031159666416840
        0.324130499751670        0.000237435599960        0.000511462059125       -0.031682787686231
        0.326549384078175        0.000242928666676        0.000523311299132       -0.032178951741048
        0.328968268404680        0.000247543838741        0.000533270032691       -0.032552515051320
        0.331387152731185        0.000251993230627        0.000542872063818       -0.032899097282015
        0.333806037057690        0.000255602859180        0.000550665493310       -0.033131915988305
        0.336224921384195        0.000259030104525        0.000558066304410       -0.033338000173000
        0.338643805710700        0.000261671334213        0.000563774083693       -0.033440774437277
        0.341062690037205        0.000264116762948        0.000569060196122       -0.033517306526075
        0.343481574363710        0.000265844817859        0.000572800961265       -0.033502414655492
        0.345900458690215        0.000267366882222        0.000576097972451       -0.033461990899029
        0.348319343016720        0.000268254107697        0.000578027284332       -0.033343255911263
        0.350738227343225        0.000268928363550        0.000579497680314       -0.033199886716542
        0.353157111669730        0.000269062940995        0.000579805262696       -0.032992321920628
        0.355575995996235        0.000268980702786        0.000579645527495       -0.032761175258284
        0.357994880322740        0.000268465055390        0.000578551838977       -0.032480712948484
        0.360413764649245        0.000267731743723        0.000576988901437       -0.032177841436466
        0.362832648975750        0.000266680656723        0.000574741091934       -0.031841049042156
        0.365251533302255        0.000265413863216        0.000572028162913       -0.031483105067987
        0.367670417628760        0.000263952347739        0.000568895476921       -0.031106893281288
        0.370089301955265        0.000262279647202        0.000565307341163       -0.030710836695229
        0.372508186281770        0.000260540581699        0.000561576040713       -0.030312164207643
        0.374927070608275        0.000258597126554        0.000557403878324       -0.029894967220084
        0.377345954934780        0.000256718714248        0.000553371768084       -0.029490546738226
        0.379764839261285        0.000254644650486        0.000548917589893       -0.029068900684821
        0.382183723587790        0.000252767735106        0.000544888235176       -0.028674910862953
        0.384602607914295        0.000250705482799        0.000540459024397       -0.028264939459998
        0.387021492240800        0.000248970768001        0.000536735759625       -0.027896747283665
        0.389440376567305        0.000247062212433        0.000532637418813       -0.027513730884350
        0.391859260893810        0.000245607432703        0.000529517249271       -0.027185628866501
        0.394278145220315        0.000243991074452        0.000526048456567       -0.026843744047340
        0.396697029546820        0.000242948166891        0.000523815959778       -0.026568706358002
        0.399115913873325        0.000241756280661        0.000521262041714       -0.026280784916425
        0.401534798199830        0.000241248607804        0.000520183376503       -0.026070246262741
        0.403953682526335        0.000240604460437        0.000518810306040       -0.025847557394869
        0.406372566852840        0.000240744134140        0.000519127437228       -0.025711218104353
        0.408791451179345        0.000240759311971        0.000519176065281       -0.025563277160991
        0.411210335505850        0.000241644667437        0.000521101309910       -0.025508937502637
        0.413629219832355        0.000242416562034        0.000522781936224       -0.025443344296859
        0.416048104158860        0.000244129829167        0.000526492933273       -0.025476770608486
        0.418466988485365        0.000245739328496        0.000529980318303       -0.025499079776547
        0.420885872811870        0.000248344545099        0.000535615518099       -0.025623904459850
        0.423304757138375        0.000250853974286        0.000541044431376       -0.025737529865774
        0.425723641464880        0.000254395182062        0.000548699193318       -0.025955186770934
        0.428142525791385        0.000257846534281        0.000556160585977       -0.026161341402370
        0.430561410117890        0.000262346294333        0.000565883963966       -0.026471037560580
        0.432980294444395        0.000266759787905        0.000575421843528       -0.026768709798202
        0.435399178770900        0.000272218047441        0.000587214127762       -0.027167433882397
        0.437818063097405        0.000277591040135        0.000598823202262       -0.027553400446612
        0.440236947423910        0.000283984376460        0.000612634273931       -0.028035967757646
        0.442655831750415        0.000290290662266        0.000626258420158       -0.028504843054440
        0.445074716076920        0.000297571924052        0.000641986962368       -0.029063976251671
        0.447493600403425        0.000304761431464        0.000657518559517       -0.029608297263728
        0.449912484729930        0.000312859790697        0.000675012153613       -0.030234741495257
        0.452331369056435        0.000320858694925        0.000692292309361       -0.030845086804668
        0.454750253382940        0.000329680116093        0.000711348431021       -0.031527757352537
        0.457169137709445        0.000338391370695        0.000730168112120       -0.032192898346830
        0.459588022035950        0.000347819496712        0.000750536026382       -0.032919058395281
        0.462006906362455        0.000357123783046        0.000770638090553       -0.033626140207690
        0.464425790688960        0.000367021230300        0.000792021629615       -0.034381605876309
        0.466844675015465        0.000376778316058        0.000813103740192       -0.035116355152305
        0.469263559341970        0.000386988363888        0.000835164932596       -0.035885724517657
        0.471682443668475        0.000397038854905        0.000856883322139       -0.036632680689748
