#           time (fs)    |     mu_x (e.angstrom)   |     mu_y (e.angstrom)   |     mu_z (e.angstrom)   |
        0.000000000000000       -0.000000000000000       -0.000000000000000        0.000000000000000
        0.002418884326505        0.000000001123850        0.000000001759922        0.000037885136767
        0.004837768653010        0.000000004495471        0.000000007040008        0.000075772208439
        0.007256652979515        0.000000010060564        0.000000015754911        0.000113046253007
        0.009675537306020        0.000000017837507        0.000000027933931        0.000150323377828
        0.012094421632525        0.000000027646532        0.000000043294821        0.000186386626538
        0.014513305959030        0.000000039596231        0.000000062008572        0.000222455228274
        0.016932190285535        0.000000053314113        0.000000083490709        0.000256729911875
        0.019351074612040        0.000000069067730        0.000000108161574        0.000291013311165
        0.021769958938545        0.000000086230613        0.000000135038541        0.000322952928409
        0.024188843265050        0.000000105292551        0.000000164890395        0.000354905657485
        0.026607727591555        0.000000125319933        0.000000196253102        0.000384003802469
        0.029026611918060        0.000000147080482        0.000000230331109        0.000413120414465
        0.031445496244565        0.000000169290248        0.000000265111331        0.000438918954771
        0.033864380571070        0.000000193041077        0.000000302306211        0.000464742184951
        0.036283264897575        0.000000216667097        0.000000339304151        0.000486838658098
        0.038702149224080        0.000000241619261        0.000000378380375        0.000508966804766
        0.041121033550585        0.000000265831166        0.000000416295635        0.000527020913006
        0.043539917877090        0.000000291135236        0.000000455922960        0.000545114318380
        0.045958802203595        0.000000315059942        0.000000493388253        0.000558853416417
        0.048377686530100        0.000000339827823        0.000000532175883        0.000572639942264
        0.050796570856605        0.000000362572334        0.000000567792740        0.000581863428678
        0.053215455183110        0.000000385900285        0.000000604325386        0.000591142837676
        0.055634339509615        0.000000406575256        0.000000636701071        0.000595725378541
        0.058053223836120        0.000000427567615        0.000000669576102        0.000600372550013
        0.060472108162625        0.000000445311172        0.000000697360907        0.000600266082024
        0.062890992489130        0.000000463104247        0.000000725225776        0.000600233009506
        0.065309876815635        0.000000477105516        0.000000747149870        0.000595467489665
        0.067728761142140        0.000000490891123        0.000000768738969        0.000590784027427
        0.070147645468645        0.000000500412937        0.000000783647970        0.000581466916606
        0.072566529795150        0.000000509461042        0.000000797818092        0.000572240262505
        0.074985414121655        0.000000513861318        0.000000804706532        0.000558554750669
        0.077404298448160        0.000000517541269        0.000000810470122        0.000544967673146
        0.079823182774665        0.000000516292546        0.000000808512051        0.000527169674407
        0.082242067101170        0.000000514092408        0.000000805067475        0.000509477511774
        0.084660951427675        0.000000506799095        0.000000793643467        0.000487891477374
        0.087079835754180        0.000000498342616        0.000000780401590        0.000466417957427
        0.089498720080685        0.000000484755532        0.000000759121503        0.000441431573910
        0.091917604407190        0.000000469816341        0.000000735727910        0.000416563521049
        0.094336488733695        0.000000449844167        0.000000704448825        0.000388621378977
        0.096755373060200        0.000000428356842        0.000000670801151        0.000360802394046
        0.099174257386705        0.000000402074208        0.000000629640019        0.000330398729334
        0.101593141713210        0.000000374141905        0.000000585899890        0.000300121944099
        0.104012026039715        0.000000341793844        0.000000535240511        0.000267792569118
        0.106430910366220        0.000000307692278        0.000000481839769        0.000235592592347
        0.108849794692725        0.000000269694907        0.000000422333845        0.000201906147148
        0.111268679019230        0.000000229872508        0.000000359974787        0.000168350332408
        0.113687563345735        0.000000186809845        0.000000292536932        0.000133898997498
        0.116106447672240        0.000000141884023        0.000000222186460        0.000099578173875
        0.118525331998745        0.000000094500921        0.000000147983131        0.000064967994795
        0.120944216325250        0.000000045250447        0.000000070860807        0.000030486810501
        0.123363100651755       -0.000000005558264       -0.000000008706702       -0.000003672209165
        0.125781984978260       -0.000000058204690       -0.000000091146554       -0.000037705173948
        0.128200869304765       -0.000000111408710       -0.000000174464831       -0.000070809050670
        0.130619753631270       -0.000000166387528       -0.000000260556727       -0.000103791241536
        0.133038637957775       -0.000000220838996       -0.000000345828291       -0.000135251899305
        0.135457522284280       -0.000000276970257       -0.000000433724511       -0.000166596654544
        0.137876406610785       -0.000000331424767       -0.000000519000719       -0.000195851561358
        0.140295290937290       -0.000000387433682       -0.000000606705048       -0.000224997728007
        0.142714175263795       -0.000000440574024       -0.000000689923266       -0.000251519124994
        0.145133059590300       -0.000000495115207       -0.000000775328953       -0.000277940267935
        0.147551943916805       -0.000000545577388       -0.000000854353302       -0.000301243841231
        0.149970828243310       -0.000000597261348       -0.000000935284539       -0.000324456895771
        0.152389712569815       -0.000000643662404       -0.000001007949434       -0.000344109750199
        0.154808596896320       -0.000000691083776       -0.000001082205562       -0.000363682977481
        0.157227481222825       -0.000000732050828       -0.000001146361211       -0.000379310782335
        0.159646365549330       -0.000000773817802       -0.000001211762790       -0.000394870898143
        0.162065249875835       -0.000000808017787       -0.000001265321744       -0.000406164088694
        0.164484134202340       -0.000000842782152       -0.000001319757596       -0.000417402449541
        0.166903018528845       -0.000000868951626       -0.000001360741407       -0.000424121383134
        0.169321902855350       -0.000000895438819       -0.000001402215664       -0.000430799128745
        0.171740787181855       -0.000000912413218       -0.000001428800703       -0.000432778111223
        0.174159671508360       -0.000000929451770       -0.000001455478912       -0.000434730179353
        0.176578555834865       -0.000000936193516       -0.000001466040379       -0.000431880295830
        0.178997440161370       -0.000000942743269       -0.000001476293686       -0.000429018243631
        0.181416324487875       -0.000000938368125       -0.000001469446876       -0.000421328946964
        0.183835208814380       -0.000000933546627       -0.000001461893358       -0.000413642532387
        0.186254093140885       -0.000000917347715       -0.000001436531269       -0.000401181962815
        0.188672977467390       -0.000000900454207       -0.000001410073499       -0.000388739459634
        0.191091861793895       -0.000000871923150       -0.000001365399952       -0.000371653489616
        0.193510746120400       -0.000000842459611       -0.000001319257954       -0.000354600730190
        0.195929630446905       -0.000000801304311       -0.000001254815428       -0.000333110749129
        0.198348514773410       -0.000000758993058       -0.000001188554248       -0.000311668909622
        0.200767399099915       -0.000000705151661       -0.000001104245761       -0.000286068383625
        0.203186283426420       -0.000000649949079       -0.000001017796974       -0.000260530546824
        0.205605167752925       -0.000000583599762       -0.000000913901419       -0.000231180408522
        0.208024052079430       -0.000000515705791       -0.000000807578001       -0.000201906959249
        0.210442936405935       -0.000000437272076       -0.000000684758477       -0.000169229901703
        0.212861820732440       -0.000000357135172       -0.000000559262572       -0.000136642828771
        0.215280705058945       -0.000000267286555       -0.000000418567379       -0.000101116595329
        0.217699589385450       -0.000000175603903       -0.000000274990659       -0.000065692791773
        0.220118473711955       -0.000000075251666       -0.000000117846750       -0.000027842570066
        0.222537358038460        0.000000027035453        0.000000042336842        0.000009893760305
        0.224956242364965        0.000000136747273        0.000000214137992        0.000049503717439
        0.227375126691470        0.000000248463003        0.000000389087137        0.000088989424560
        0.229794011017975        0.000000366171432        0.000000573411165        0.000129764815828
        0.232212895344480        0.000000485919679        0.000000760939615        0.000170406803802
        0.234631779670985        0.000000610061257        0.000000955338153        0.000211732788052
        0.237050663997490        0.000000736244672        0.000001152944457        0.000252917505891
        0.239469548323995        0.000000865078282        0.000001354690890        0.000294168548679
        0.241888432650500        0.000000995921647        0.000001559595006        0.000335271817747
        0.244307316977005        0.000001127555398        0.000001765726564        0.000375821716411
        0.246726201303510        0.000001261133049        0.000001974912819        0.000416218735418
        0.249145085630015        0.000001393554780        0.000002182278352        0.000455450660230
        0.251563969956520        0.000001527821659        0.000002392544068        0.000494526025628
        0.253982854283025        0.000001658932565        0.000002597856713        0.000531842414227
        0.256401738609530        0.000001791758376        0.000002805865704        0.000568999993554
        0.258820622936035        0.000001919409190        0.000003005759560        0.000603832138179
        0.261239507262540        0.000002048615082        0.000003208099588        0.000638504636169
        0.263658391589045        0.000002170644181        0.000003399189399        0.000670321808086
        0.266077275915550        0.000002294041324        0.000003592432602        0.000701979870288
        0.268496160242055        0.000002408314077        0.000003771375386        0.000730297833258
        0.270915044568560        0.000002523743439        0.000003952140582        0.000758458539317
        0.273333928895065        0.000002628192076        0.000004115698090        0.000782847313780
        0.275752813221570        0.000002733564682        0.000004280713830        0.000807081922371
        0.278171697548075        0.000002826227954        0.000004425814656        0.000827172674120
        0.280590581874580        0.000002919564868        0.000004571981860        0.000847113493613
        0.283009466201085        0.000002998626729        0.000004695782035        0.000862604434890
        0.285428350527590        0.000003078098014        0.000004820235005        0.000877950707948
        0.287847234854095        0.000003141924583        0.000004920175890        0.000888611914851
        0.290266119180600        0.000003205886472        0.000005020340533        0.000899134621129
        0.292685003507105        0.000003253060548        0.000005094202872        0.000904811688801
        0.295103887833610        0.000003300090099        0.000005167850972        0.000910357187422
        0.297522772160115        0.000003329442515        0.000005213803997        0.000910973663311
        0.299941656486620        0.000003358369042        0.000005259102435        0.000911466115632
        0.302360540813125        0.000003369006207        0.000005275746991        0.000907024670931
        0.304779425139630        0.000003378938827        0.000005291300886        0.000902467203862
        0.307198309466135        0.000003370265859        0.000005277705657        0.000893049523722
        0.309617193792640        0.000003360616561        0.000005262594480        0.000883524114333
        0.312036078119145        0.000003332355479        0.000005218324463        0.000869289508250
        0.314454962445650        0.000003302857188        0.000005172130311        0.000854955591142
        0.316873846772155        0.000003255059720        0.000005097266863        0.000836138345697
        0.319292731098660        0.000003205778903        0.000005020094191        0.000817230165401
        0.321711615425165        0.000003138833548        0.000004915246067        0.000794135682007
        0.324130499751670        0.000003070177019        0.000004807732326        0.000770958433035
        0.326549384078175        0.000002984810112        0.000004674037330        0.000743958213083
        0.328968268404680        0.000002897525783        0.000004537354119        0.000716883030023
        0.331387152731185        0.000002794796407        0.000004376471122        0.000686408588591
        0.333806037057690        0.000002689967828        0.000004212315624        0.000655866467336
        0.336224921384195        0.000002571256539        0.000004026406884        0.000622402274081
        0.338643805710700        0.000002450291211        0.000003836983540        0.000588877022684
        0.341062690037205        0.000002317282647        0.000003628687446        0.000552952584399
        0.343481574363710        0.000002181894173        0.000003416679993        0.000516972917896
        0.345900458690215        0.000002036553727        0.000003189074526        0.000479154131189
        0.348319343016720        0.000001888738006        0.000002957608696        0.000441285038679
        0.350738227343225        0.000001733282875        0.000002714166076        0.000402164953218
        0.353157111669730        0.000001575288643        0.000002466763453        0.000362998477374
        0.355575995996235        0.000001412153655        0.000002211296617        0.000323187619715
        0.357994880322740        0.000001246447787        0.000001951820292        0.000283333198553
        0.360413764649245        0.000001078246519        0.000001688421997        0.000243449613838
        0.362832648975750        0.000000907474623        0.000001421014858        0.000203524141706
        0.365251533302255        0.000000736956421        0.000001153990372        0.000164183315149
        0.367670417628760        0.000000563899330        0.000000883006969        0.000124801084582
        0.370089301955265        0.000000393902920        0.000000616801438        0.000086605906690
        0.372508186281770        0.000000221429797        0.000000346734547        0.000048368594744
        0.374927070608275        0.000000054834264        0.000000085856232        0.000011899533587
        0.377345954934780       -0.000000114146913       -0.000000178740668       -0.000024613604350
        0.379764839261285       -0.000000274472942       -0.000000429799965       -0.000058807963811
        0.382183723587790       -0.000000437066664       -0.000000684392998       -0.000093049533074
        0.384602607914295       -0.000000588316768       -0.000000921238947       -0.000124461428488
        0.387021492240800       -0.000000741692164       -0.000001161395515       -0.000155924813278
        0.389440376567305       -0.000000881173874       -0.000001379812283       -0.000184095577544
        0.391859260893810       -0.000001022616842       -0.000001601282691       -0.000212323192807
        0.394278145220315       -0.000001147802466       -0.000001797312505       -0.000236850724942
        0.396697029546820       -0.000001274766830       -0.000001996110053       -0.000261441467403
        0.399115913873325       -0.000001383342411       -0.000002166129864       -0.000281986779735
        0.401534798199830       -0.000001493499163       -0.000002338607937       -0.000302602556493
        0.403953682526335       -0.000001583410672       -0.000002479401730       -0.000318895291235
        0.406372566852840       -0.000001674694382       -0.000002622326461       -0.000335266519291
        0.408791451179345       -0.000001744190250       -0.000002731151841       -0.000347109344300
        0.411210335505850       -0.000001814841750       -0.000002841768939       -0.000359039331092
        0.413629219832355       -0.000001862510906       -0.000002916416686       -0.000366311142831
        0.416048104158860       -0.000001911115426       -0.000002992511137       -0.000373679276025
        0.418466988485365       -0.000001935920076       -0.000003031356522       -0.000376337157118
        0.420885872811870       -0.000001961440048       -0.000003071303946       -0.000379100851280
        0.423304757138375       -0.000001962742510       -0.000003073348743       -0.000377180750317
        0.425723641464880       -0.000001964544360       -0.000003076157338       -0.000375376118306
        0.428142525791385       -0.000001942127356       -0.000003041061589       -0.000368992240356
        0.430561410117890       -0.000001920001691       -0.000003006403738       -0.000362733478027
        0.432980294444395       -0.000001874081610       -0.000002934506516       -0.000352076395296
        0.435399178770900       -0.000001828256310       -0.000002862739275       -0.000341553889054
        0.437818063097405       -0.000001759489074       -0.000002755067863       -0.000326887401991
        0.440236947423910       -0.000001690634925       -0.000002647241788       -0.000312364589575
        0.442655831750415       -0.000001600114206       -0.000002505508887       -0.000294021389073
        0.445074716076920       -0.000001509342840       -0.000002363364787       -0.000275830424224
        0.447493600403425       -0.000001398590523       -0.000002189953576       -0.000254206625159
        0.449912484729930       -0.000001287444531       -0.000002015907048       -0.000232742916380
        0.452331369056435       -0.000001158393438       -0.000001813844130       -0.000208291551093
        0.454750253382940       -0.000001028828718       -0.000001610957905       -0.000184007263057
        0.457169137709445       -0.000000883797753       -0.000001383874388       -0.000157230840423
        0.459588022035950       -0.000000738158233       -0.000001155818748       -0.000130627463544
        0.462006906362455       -0.000000579820249       -0.000000907899928       -0.000102069714511
        0.464425790688960       -0.000000420805299       -0.000000658901681       -0.000073689823415
        0.466844675015465       -0.000000252148113       -0.000000394825995       -0.000043926767214
        0.469263559341970       -0.000000082773082       -0.000000129606680       -0.000014345102126
        0.471682443668475        0.000000092945799        0.000000145525187        0.000016024421495
