#           time (fs)       | force (atom_1) (H/b)   |  force (atom_2) (H/b)  |           ...          |  force (atom_N) (H/b)  |
        0.000000000000000       -0.000000000000000       -0.000000000000000       -0.001977038000788       -0.000000000000000       -0.000000000000000        0.001977038000788
        0.120944216325250        0.000021754345662       -0.000014587087663       -0.004338075109701       -0.000021754345662        0.000014587087663        0.004338075115053
        0.241888432650500        0.000065686309726       -0.000044045083415       -0.006778190666869       -0.000065686309726        0.000044045083415        0.006778190648328
        0.362832648975750        0.000132703065802       -0.000088982280757       -0.009265627234059       -0.000132703065802        0.000088982280757        0.009265627249144
        0.483776865301000        0.000218077194122       -0.000146228769233       -0.011236001381321       -0.000218077194122        0.000146228769233        0.011236001333533
        0.604721081626250        0.000322752334119       -0.000216417294997       -0.012990161594342       -0.000322752334119        0.000216417294997        0.012990161585965
        0.725665297951500        0.000439556134278       -0.000294738534029       -0.014179237768689       -0.000439556134278        0.000294738534029        0.014179237739039
        0.846609514276750        0.000570046907864       -0.000382237391076       -0.015459992720543       -0.000570046907864        0.000382237391076        0.015459992712745
        0.967553730602000        0.000711580468581       -0.000477140842323       -0.016785735831690       -0.000711580468581        0.000477140842323        0.016785735837221
        1.088497946927250        0.000853749386585       -0.000572470323814       -0.018000395170373       -0.000853749386585        0.000572470323814        0.018000395191702
        1.209442163252500        0.001009691014100       -0.000677034914012       -0.019581344051919       -0.001009691014100        0.000677034914012        0.019581344083356
        1.330386379577750        0.001140723749374       -0.000764897175093       -0.020064754688893       -0.001140723749374        0.000764897175093        0.020064754732368
        1.451330595903000        0.001283953625990       -0.000860938068697       -0.020838295944681       -0.001283953625990        0.000860938068697        0.020838295988217
        1.572274812228250        0.001382764472669       -0.000927194371173       -0.020214450789595       -0.001382764472669        0.000927194371173        0.020214450825640
        1.693219028553500        0.001484160081068       -0.000995183851055       -0.019913299110815       -0.001484160081068        0.000995183851055        0.019913299131470
        1.814163244878750        0.001545710647757       -0.001036455766452       -0.019086184320914       -0.001545710647757        0.001036455766452        0.019086184324877
        1.935107461204000        0.001592406257848       -0.001067766888743       -0.018471951935958       -0.001592406257848        0.001067766888743        0.018471951921240
        2.056051677529250        0.001609648327953       -0.001079328330262       -0.017901742068381       -0.001609648327953        0.001079328330262        0.017901742046047
        2.176995893854500        0.001592613000178       -0.001067905518003       -0.017012695386696       -0.001592613000178        0.001067905518003        0.017012695336523
        2.297940110179750        0.001540463843024       -0.001032937592979       -0.015805971320847       -0.001540463843024        0.001032937592979        0.015805971307991
        2.418884326505000        0.001446491419759       -0.000969925629967       -0.014069767595677       -0.001446491419759        0.000969925629967        0.014069767552950
        2.539828542830250        0.001312749743511       -0.000880246923654       -0.011903740968534       -0.001312749743511        0.000880246923654        0.011903740967353
        2.660772759155500        0.001142523735706       -0.000766104132607       -0.009687458917540       -0.001142523735706        0.000766104132607        0.009687458908635
        2.781716975480750        0.000949604635562       -0.000636744789591       -0.007624250871343       -0.000949604635562        0.000636744789591        0.007624250872630
        2.902661191806000        0.000716221039769       -0.000480252516075       -0.005664852954174       -0.000716221039769        0.000480252516075        0.005664852958264
        3.023605408131250        0.000483737949776       -0.000324364064655       -0.004158470269797       -0.000483737949776        0.000324364064655        0.004158470296681
        3.144549624456500        0.000191736689569       -0.000128566494191       -0.002103474416085       -0.000191736689569        0.000128566494191        0.002103474401334
        3.265493840781750       -0.000089300369412        0.000059879176799       -0.000315237613291        0.000089300369412       -0.000059879176799        0.000315237636587
        3.386438057107000       -0.000429940042840        0.000288290589715        0.002284722028466        0.000429940042840       -0.000288290589715       -0.002284722056998
        3.507382273432250       -0.000762181231274        0.000511070510684        0.004561505972808        0.000762181231274       -0.000511070510684       -0.004561505971345
        3.628326489757500       -0.001112192742705        0.000745766086321        0.006871075377465        0.001112192742705       -0.000745766086321       -0.006871075380954
        3.749270706082750       -0.001468375712408        0.000984599850684        0.008777338283701        0.001468375712408       -0.000984599850684       -0.008777338280697
        3.870214922408000       -0.001796973952377        0.001204937040131        0.010102629012027        0.001796973952377       -0.001204937040131       -0.010102629016670
        3.991159138733250       -0.002151616014511        0.001442737569040        0.011522367983580        0.002151616014511       -0.001442737569040       -0.011522367953742
        4.112103355058500       -0.002474206027370        0.001659046023047        0.012681323556356        0.002474206027370       -0.001659046023047       -0.012681323565610
        4.233047571383750       -0.002814457831375        0.001887197355716        0.014259923138262        0.002814457831375       -0.001887197355716       -0.014259923091273
        4.353991787709000       -0.003146154675234        0.002109612273135        0.015891517755864        0.003146154675234       -0.002109612273135       -0.015891517748122
        4.474936004034250       -0.003449256912372        0.002312853457115        0.017351330628957        0.003449256912372       -0.002312853457115       -0.017351330614347
        4.595880220359500       -0.003751225243194        0.002515334314413        0.018575795112330        0.003751225243194       -0.002515334314413       -0.018575795112039
        4.716824436684750       -0.004003117702135        0.002684237459805        0.019229029235676        0.004003117702135       -0.002684237459805       -0.019229029241840
        4.837768653010000       -0.004226255067660        0.002833859260328        0.019408764256281        0.004226255067660       -0.002833859260328       -0.019408764278151
        4.958712869335250       -0.004446637947752        0.002981634075656        0.019781232531892        0.004446637947752       -0.002981634075656       -0.019781232550142
        5.079657085660500       -0.004592544463407        0.003079469754463        0.019695802447350        0.004592544463407       -0.003079469754463       -0.019695802476023
        5.200601301985750       -0.004783628973047        0.003207598936909        0.020473247589719        0.004783628973047       -0.003207598936909       -0.020473247614143
        5.321545518311000       -0.004877984088730        0.003270867507281        0.020618709258081        0.004877984088730       -0.003270867507281       -0.020618709274504
        5.442489734636251       -0.004981984942023        0.003340603899671        0.021003156548080        0.004981984942023       -0.003340603899671       -0.021003156554695
        5.563433950961501       -0.005023824870666        0.003368659109424        0.020765329261535        0.005023824870666       -0.003368659109424       -0.020765329257299
        5.684378167286750       -0.004994853416881        0.003349232684135        0.019921250494851        0.004994853416881       -0.003349232684135       -0.019921250478569
        5.805322383612000       -0.004965622672630        0.003329632395815        0.019149343754806        0.004965622672630       -0.003329632395815       -0.019149343736569
        5.926266599937250       -0.004839761348434        0.003245237754513        0.017903178588481        0.004839761348434       -0.003245237754513       -0.017903178549371
        6.047210816262500       -0.004723695435134        0.003167411295793        0.017211025218145        0.004723695435134       -0.003167411295793       -0.017211025212715
        6.168155032587750       -0.004547479224129        0.003049251855097        0.016428586639500        0.004547479224129       -0.003049251855097       -0.016428586610719
        6.289099248913001       -0.004322689409188        0.002898522024245        0.015648566068727        0.004322689409188       -0.002898522024245       -0.015648566065293
        6.410043465238251       -0.004067678225528        0.002727527658693        0.014631823382313        0.004067678225528       -0.002727527658693       -0.014631823380052
        6.530987681563500       -0.003724355240978        0.002497316986509        0.013075512273956        0.003724355240978       -0.002497316986509       -0.013075512284997
        6.651931897888750       -0.003341586091275        0.002240656211312        0.011165962047726        0.003341586091275       -0.002240656211312       -0.011165962053583
        6.772876114214000       -0.002913508563265        0.001953614503952        0.009247601685280        0.002913508563265       -0.001953614503952       -0.009247601731240
        6.893820330539250       -0.002414100318420        0.001618742930636        0.007148703576695        0.002414100318420       -0.001618742930636       -0.007148703568746
        7.014764546864500       -0.001935813174068        0.001298033832051        0.005692122935237        0.001935813174068       -0.001298033832051       -0.005692122966453
        7.135708763189751       -0.001358644571974        0.000911021083003        0.003929678074311        0.001358644571974       -0.000911021083003       -0.003929678069049
        7.256652979515001       -0.000805908872783        0.000540391492403        0.002478335297331        0.000805908872783       -0.000540391492403       -0.002478335302167
        7.377597195840250       -0.000165703441847        0.000111110234009        0.000515613153051        0.000165703441847       -0.000111110234009       -0.000515613151871
        7.498541412165500        0.000495090230365       -0.000331976197083       -0.001720286354937       -0.000495090230365        0.000331976197083        0.001720286355764
        7.619485628490750        0.001172650817347       -0.000786305459224       -0.003957041815793       -0.001172650817347        0.000786305459224        0.003957041842686
        7.740429844816000        0.001898930735437       -0.001273302823103       -0.006402121445913       -0.001898930735437        0.001273302823103        0.006402121430308
        7.861374061141250        0.002563368937482       -0.001718833045236       -0.008144551997618       -0.002563368937482        0.001718833045236        0.008144552021457
        7.982318277466501        0.003270745955061       -0.002193155318976       -0.009897301274054       -0.003270745955061        0.002193155318976        0.009897301253230
        8.103262493791750        0.003898500205937       -0.002614087604460       -0.011120140996649       -0.003898500205937        0.002614087604460        0.011120140999291
        8.224206710117000        0.004552580758615       -0.003052672641541       -0.012524755457562       -0.004552580758615        0.003052672641541        0.012524755455834
        8.345150926442249        0.005138256867382       -0.003445389986290       -0.013905498205293       -0.005138256867382        0.003445389986290        0.013905498207438
        8.466095142767500        0.005729197737578       -0.003841637547730       -0.015497726229521       -0.005729197737578        0.003841637547730        0.015497726227325
        8.587039359092751        0.006209691070794       -0.004163825978523       -0.016738149693625       -0.006209691070794        0.004163825978523        0.016738149709482
        8.707983575418000        0.006682283800678       -0.004480716764074       -0.017966395851736       -0.006682283800678        0.004480716764074        0.017966395855013
        8.828927791743251        0.006974070485908       -0.004676370455177       -0.018194292114100       -0.006974070485908        0.004676370455177        0.018194292131439
        8.949872008068500        0.007256557479139       -0.004865788361995       -0.018501886342430       -0.007256557479139        0.004865788361995        0.018501886351618
        9.070816224393750        0.007363149703227       -0.004937262364259       -0.018054778206237       -0.007363149703227        0.004937262364259        0.018054778211947
        9.191760440718999        0.007423272917697       -0.004977577189061       -0.017829178988919       -0.007423272917697        0.004977577189061        0.017829178989120
        9.312704657044250        0.007394711907159       -0.004958425983699       -0.017635065640843       -0.007394711907159        0.004958425983699        0.017635065635942
        9.433648873369501        0.007221109709230       -0.004842019333750       -0.017113048334671       -0.007221109709230        0.004842019333750        0.017113048322304
        9.554593089694750        0.007031230072163       -0.004714698062743       -0.016859756742973       -0.007031230072163        0.004714698062743        0.016859756737305
        9.675537306020001        0.006618081824824       -0.004437666987631       -0.015583621679272       -0.006618081824824        0.004437666987631        0.015583621659837
        9.796481522345250        0.006203859884781       -0.004159915962833       -0.014429059933730       -0.006203859884781        0.004159915962833        0.014429059939592
        9.917425738670500        0.005592310777244       -0.003749849823059       -0.012495180288292       -0.005592310777244        0.003749849823059        0.012495180280176
       10.038369954995749        0.004976432642216       -0.003336880910938       -0.010787931872184       -0.004976432642216        0.003336880910938        0.010787931872685
       10.159314171321000        0.004242392351883       -0.002844679934458       -0.009032470998245       -0.004242392351883        0.002844679934458        0.009032470998378
       10.280258387646251        0.003500472929202       -0.002347195709515       -0.007538859952083       -0.003500472929202        0.002347195709515        0.007538859962935
       10.401202603971500        0.002677244304070       -0.001795190677892       -0.006042328130333       -0.002677244304070        0.001795190677892        0.006042328116781
       10.522146820296751        0.001835494375518       -0.001230766431959       -0.004474931172974       -0.001835494375518        0.001230766431959        0.004474931201157
       10.643091036622000        0.000925981222743       -0.000620904454292       -0.002559202848333       -0.000925981222743        0.000620904454292        0.002559202817181
       10.764035252947250       -0.000004243449302        0.000002845357750       -0.000489091901001        0.000004243449302       -0.000002845357750        0.000489091913181
       10.884979469272501       -0.000945450540067        0.000633959284521        0.001675491782105        0.000945450540067       -0.000633959284521       -0.001675491793209
       11.005923685597750       -0.001900171361809        0.001274134664683        0.003656674133167        0.001900171361809       -0.001274134664683       -0.003656674133218
       11.126867901923001       -0.002793606942762        0.001873216039489        0.005243143190154        0.002793606942762       -0.001873216039489       -0.005243143193101
       11.247812118248250       -0.003697134040724        0.002479064147439        0.006618400380712        0.003697134040724       -0.002479064147439       -0.006618400370935
       11.368756334573501       -0.004537881369332        0.003042816113937        0.007796454254323        0.004537881369332       -0.003042816113937       -0.007796454279372
       11.489700550898750       -0.005363515946454        0.003596434424622        0.009058024611454        0.005363515946454       -0.003596434424622       -0.009058024585325
       11.610644767224001       -0.006181866989319        0.004145168860085        0.010569555689500        0.006181866989319       -0.004145168860085       -0.010569555706192
       11.731588983549251       -0.006912932992809        0.004635375468480        0.011978221595421        0.006912932992809       -0.004635375468480       -0.011978221583596
       11.852533199874500       -0.007657657721286        0.005134740754724        0.013467675915251        0.007657657721286       -0.005134740754724       -0.013467675916667
       11.973477416199751       -0.008271828187716        0.005546564611925        0.014452089904599        0.008271828187716       -0.005546564611925       -0.014452089904156
       12.094421632525000       -0.008838927447806        0.005926825497423        0.015059894107472        0.008838927447806       -0.005926825497423       -0.015059894107123
       12.215365848850251       -0.009353650234931        0.006271966033107        0.015573498380867        0.009353650234931       -0.006271966033107       -0.015573498369505
       12.336310065175500       -0.009722391643918        0.006519220693166        0.015589824163402        0.009722391643918       -0.006519220693166       -0.015589824159856
       12.457254281500751       -0.010155439122461        0.006809594934589        0.016300507131305        0.010155439122461       -0.006809594934589       -0.016300507124429
       12.578198497826001       -0.010387029865703        0.006964885034751        0.016487563444886        0.010387029865703       -0.006964885034751       -0.016487563438496
       12.699142714151250       -0.010667301752129        0.007152817627903        0.017211252752231        0.010667301752129       -0.007152817627903       -0.017211252748800
       12.820086930476501       -0.010791838234443        0.007236323914322        0.017351585389208        0.010791838234443       -0.007236323914322       -0.017351585387738
       12.941031146801750       -0.010827795017218        0.007260434256969        0.017198137138828        0.010827795017218       -0.007260434256969       -0.017198137140636
       13.061975363127001       -0.010815239411894        0.007252015263137        0.016817955790297        0.010815239411894       -0.007252015263137       -0.016817955795290
       13.182919579452250       -0.010637058469752        0.007132538395014        0.015969873078806        0.010637058469752       -0.007132538395014       -0.015969873079137
       13.303863795777501       -0.010452180374074        0.007008570839247        0.015408245907245        0.010452180374074       -0.007008570839247       -0.015408245922815
       13.424808012102751       -0.010156772242832        0.006810488835913        0.014807814998797        0.010156772242832       -0.006810488835913       -0.014807814994101
