#           time (fs)    |     mu_x (e.angstrom)   |     mu_y (e.angstrom)   |     mu_z (e.angstrom)   |
        0.000000000000000       -0.000000000000000       -0.000000000000000        0.000000000000000
        0.002418884326505       -0.000000009024729       -0.000000017913818       -0.000149462991373
        0.004837768653010       -0.000000036108174       -0.000000071674033       -0.000298963109692
        0.007256652979515       -0.000000080813197       -0.000000160412362       -0.000446005664057
        0.009675537306020       -0.000000143301456       -0.000000284450666       -0.000593075377384
        0.012094421632525       -0.000000222115828       -0.000000440895267       -0.000735303467927
        0.014513305959030       -0.000000318142107       -0.000000631506225       -0.000877539102205
        0.016932190285535       -0.000000428360557       -0.000000850287379       -0.001012619114844
        0.019351074612040       -0.000000554927258       -0.000001101521098       -0.001147678042749
        0.021769958938545       -0.000000692766103       -0.000001375128645       -0.001273375351515
        0.024188843265050       -0.000000845805938       -0.000001678912126       -0.001399014903032
        0.026607727591555       -0.000001006486339       -0.000001997860748       -0.001513231275446
        0.029026611918060       -0.000001180950855       -0.000002344173595       -0.001627346455276
        0.031445496244565       -0.000001358808000       -0.000002697219511       -0.001728155659332
        0.033864380571070       -0.000001548781981       -0.000003074320972       -0.001828815034423
        0.036283264897575       -0.000001737398161       -0.000003448726005       -0.001914496039570
        0.038702149224080       -0.000001936237785       -0.000003843429104       -0.001999975181549
        0.041121033550585       -0.000002128596772       -0.000004225267013       -0.002069042377192
        0.043539917877090       -0.000002329088811       -0.000004623254432       -0.002137854276394
        0.045958802203595       -0.000002517748436       -0.000004997753321       -0.002189084172598
        0.048377686530100       -0.000002712287297       -0.000005383928663       -0.002240006082547
        0.050796570856605       -0.000002889566643       -0.000005735842402       -0.002272460008200
        0.053215455183110       -0.000003070345552       -0.000006094709540       -0.002304556231086
        0.055634339509615       -0.000003228522795       -0.000006408710338       -0.002317598604162
        0.058053223836120       -0.000003387735072       -0.000006724772802       -0.002330238788503
        0.060472108162625       -0.000003519251683       -0.000006985856425       -0.002323550600363
        0.062890992489130       -0.000003649297706       -0.000007244028135       -0.002316423190647
        0.065309876815635       -0.000003746964477       -0.000007437922809       -0.002290010420523
        0.067728761142140       -0.000003840659742       -0.000007623941027       -0.002263130974264
        0.070147645468645       -0.000003897859982       -0.000007737510775       -0.002217327730092
        0.072566529795150       -0.000003948639510       -0.000007838341888       -0.002171041899189
        0.074985414121655       -0.000003959524684       -0.000007859974943       -0.002106508165515
        0.077404298448160       -0.000003961639011       -0.000007864203593       -0.002041489224811
        0.079823182774665       -0.000003921312172       -0.000007784176642       -0.001959203186272
        0.082242067101170       -0.000003870010223       -0.000007682368888       -0.001876444081444
        0.084660951427675       -0.000003774692723       -0.000007493178184       -0.001777689079895
        0.087079835754180       -0.000003666387028       -0.000007278209670       -0.001678489057713
        0.089498720080685       -0.000003513564260       -0.000006974860547       -0.001564835330982
        0.091917604407190       -0.000003345974263       -0.000006642201203       -0.001450781306228
        0.094336488733695       -0.000003134516515       -0.000006222448230       -0.001324062745216
        0.096755373060200       -0.000002906786070       -0.000005770395748       -0.001197005648452
        0.099174257386705       -0.000002637041031       -0.000005234926579       -0.001059291895360
        0.101593141713210       -0.000002349826652       -0.000004664781819       -0.000921318332847
        0.104012026039715       -0.000002023680614       -0.000004017338885       -0.000774882625259
        0.106430910366220       -0.000001679207573       -0.000003333517413       -0.000628282265190
        0.108849794692725       -0.000001300112967       -0.000002580952741       -0.000475565507090
        0.111268679019230       -0.000000902196960       -0.000001791027960       -0.000322794683326
        0.113687563345735       -0.000000475164539       -0.000000943287741       -0.000166366293550
        0.116106447672240       -0.000000029197292       -0.000000057962390       -0.000010008388010
        0.118525331998745        0.000000439248038        0.000000872000674        0.000147475462116
        0.120944216325250        0.000000926350080        0.000001838996393        0.000304752235772
        0.123363100651755        0.000001428250008        0.000002835383433        0.000460592331991
        0.125781984978260        0.000001948134051        0.000003867467334        0.000616079068739
        0.128200869304765        0.000002474213662        0.000004911865265        0.000767578105435
        0.130619753631270        0.000003017215298        0.000005989850906        0.000918570557373
        0.133038637957775        0.000003557034587        0.000007061533334        0.001063078595649
        0.135457522284280        0.000004112337427        0.000008163947052        0.001206922982622
        0.137876406610785        0.000004654475433        0.000009240239947        0.001341882660889
        0.140295290937290        0.000005210303376        0.000010343702674        0.001476021179509
        0.142714175263795        0.000005742572056        0.000011400409077        0.001599011916457
        0.145133059590300        0.000006286411153        0.000012480076895        0.001721027178456
        0.147551943916805        0.000006796095406        0.000013491953513        0.001829807614829
        0.149970828243310        0.000007314941558        0.000014522009463        0.001937465253295
        0.152389712569815        0.000007789061137        0.000015463286668        0.002030013198096
        0.154808596896320        0.000008269689193        0.000016417474990        0.002121301900638
        0.157227481222825        0.000008695277634        0.000017262410551        0.002195851079225
        0.159646365549330        0.000009124526851        0.000018114603356        0.002269019340375
        0.162065249875835        0.000009488922028        0.000018838059203        0.002324092285958
        0.164484134202340        0.000009853992343        0.000019562844569        0.002377681216730
        0.166903018528845        0.000010145132836        0.000020140875054        0.002412117702524
        0.169321902855350        0.000010433885988        0.000020714154708        0.002444989292539
        0.171740787181855        0.000010640607131        0.000021124594217        0.002457969768445
        0.174159671508360        0.000010841866366        0.000021524178399        0.002469330064422
        0.176578555834865        0.000010954189653        0.000021747215762        0.002460393638747
        0.178997440161370        0.000011058031565        0.000021953402482        0.002449810381654
        0.181416324487875        0.000011067440997        0.000021972129495        0.002418866973742
        0.183835208814380        0.000011065473013        0.000021968255318        0.002386281324147
        0.186254093140885        0.000010965172060        0.000021769176819        0.002333617706760
        0.188672977467390        0.000010850789134        0.000021542126454        0.002279349782727
        0.191091861793895        0.000010635932139        0.000021115619729        0.002205629331939
        0.193510746120400        0.000010404546485        0.000020656282132        0.002130377384539
        0.195929630446905        0.000010072438699        0.000019996994111        0.002036633458363
        0.198348514773410        0.000009721676684        0.000019300653498        0.001941466615041
        0.200767399099915        0.000009271937536        0.000018407825057        0.001829089588227
        0.203186283426420        0.000008801798397        0.000017474476181        0.001715434202049
        0.205605167752925        0.000008236483218        0.000016352184017        0.001586152291742
        0.208024052079430        0.000007649454820        0.000015186762234        0.001455772043206
        0.210442936405935        0.000006973130909        0.000013844070148        0.001311626166684
        0.212861820732440        0.000006274258528        0.000012456588263        0.001166596172517
        0.215280705058945        0.000005494032243        0.000010907601246        0.001009909182124
        0.217699589385450        0.000004690937158        0.000009313186716        0.000852584470387
        0.220118473711955        0.000003816429627        0.000007577003015        0.000685925210381
        0.222537358038460        0.000002919275224        0.000005795830940        0.000518904021498
        0.224956242364965        0.000001962545203        0.000003896389160        0.000345046744984
        0.227375126691470        0.000000983949294        0.000001953508442        0.000171129212239
        0.229794011017975       -0.000000040637259       -0.000000080671199       -0.000006991017998
        0.232212895344480       -0.000001085744162       -0.000002155619079       -0.000184848169113
        0.234631779670985       -0.000002161697178       -0.000004291798133       -0.000364183395669
        0.237050663997490       -0.000003256266817       -0.000006464966090       -0.000542915413674
        0.239469548323995       -0.000004365206156       -0.000008666652529       -0.000720355249713
        0.241888432650500       -0.000005490318776       -0.000010900476791       -0.000896840408203
        0.244307316977005       -0.000006612256452       -0.000013127985391       -0.001069264233536
        0.246726201303510       -0.000007747415336       -0.000015381770370       -0.001240376533637
        0.249145085630015       -0.000008861082061       -0.000017592871192       -0.001404706561933
        0.251563969956520       -0.000009984552247       -0.000019823462156       -0.001567369213241
        0.253982854283025       -0.000011067763454       -0.000021974107444       -0.001720623544210
        0.256401738609530       -0.000012156949532       -0.000024136640822       -0.001871862326240
        0.258820622936035       -0.000013187005040       -0.000026181758753       -0.002011207084814
        0.261239507262540       -0.000014218861955       -0.000028230477981       -0.002148202680769
        0.263658391589045       -0.000015172972601       -0.000030124819942       -0.002271002348467
        0.266077275915550       -0.000016124442511       -0.000032013943042       -0.002391140748195
        0.268496160242055       -0.000016980176290       -0.000033712969611       -0.002495005810319
        0.270915044568560       -0.000017828643792       -0.000035397593173       -0.002595925899830
        0.273333928895065       -0.000018564383402       -0.000036858382683       -0.002678756965593
        0.275752813221570       -0.000019288140770       -0.000038295405691       -0.002758394456238
        0.278171697548075       -0.000019883543941       -0.000039477568258       -0.002818422057184
        0.280590581874580       -0.000020462257570       -0.000040626618199       -0.002875048958258
        0.283009466201085       -0.000020898711212       -0.000041493197385       -0.002910868292674
        0.285428350527590       -0.000021313880086       -0.000042317540465       -0.002943127196115
        0.287847234854095       -0.000021574939087       -0.000042835884406       -0.002953727162794
        0.290266119180600       -0.000021810335953       -0.000043303301357       -0.002960659686802
        0.292685003507105       -0.000021882137445       -0.000043445885116       -0.002945445639296
        0.295103887833610       -0.000021924223376       -0.000043529494136       -0.002926514468161
        0.297522772160115       -0.000021795867443       -0.000043274675406       -0.002885324219340
        0.299941656486620       -0.000021634170684       -0.000042953684151       -0.002840428277932
        0.302360540813125       -0.000021298058833       -0.000042286375112       -0.002773540992629
        0.304779425139630       -0.000020925509190       -0.000041546744468       -0.002703023404487
        0.307198309466135       -0.000020377632440       -0.000040458983642       -0.002611161133629
        0.309617193792640       -0.000019790843065       -0.000039293987088       -0.002515809729542
        0.312036078119145       -0.000019031012201       -0.000037785396439       -0.002400131460522
        0.314454962445650       -0.000018230501356       -0.000036196060333       -0.002281171727994
        0.316873846772155       -0.000017262512776       -0.000034274174584       -0.002143259951202
        0.319292731098660       -0.000016252859093       -0.000032269586508       -0.002002340442297
        0.321711615425165       -0.000015084590707       -0.000029950043676       -0.001844180360550
        0.324130499751670       -0.000013874516529       -0.000027547518082       -0.001683350704121
        0.326549384078175       -0.000012517949342       -0.000024854102550       -0.001507302338159
        0.328968268404680       -0.000011120327946       -0.000022079195369       -0.001328984130201
        0.331387152731185       -0.000009591490231       -0.000019043727361       -0.001137747697220
        0.333806037057690       -0.000008023274075       -0.000015930093866       -0.000944698667950
        0.336224921384195       -0.000006342106469       -0.000012592161931       -0.000741273729213
        0.338643805710700       -0.000004624175019       -0.000009181254966       -0.000536545705147
        0.341062690037205       -0.000002814316293       -0.000005587791001       -0.000324184690925
        0.343481574363710       -0.000000971243507       -0.000001928399666       -0.000111075982728
        0.345900458690215        0.000000940261672        0.000001866901015        0.000106767193754
        0.348319343016720        0.000002880518601        0.000005719269069        0.000324764243670
        0.350738227343225        0.000004863587120        0.000009656677053        0.000544489678978
        0.353157111669730        0.000006870074586        0.000013640563466        0.000763745163050
        0.355575995996235        0.000008892023179        0.000017655185356        0.000981665678476
        0.357994880322740        0.000010931248849        0.000021704089722        0.001198471699502
        0.360413764649245        0.000012957297421        0.000025726867479        0.001410873827446
        0.362832648975750        0.000014993752563        0.000029770284503        0.001621506212960
        0.365251533302255        0.000016987585274        0.000033729109644        0.001824712453138
        0.367670417628760        0.000018984324101        0.000037693679634        0.002025493589460
        0.370089301955265        0.000020908699658        0.000041514605237        0.002215924898764
        0.372508186281770        0.000022827966719        0.000045325360133        0.002403286633219
        0.374927070608275        0.000024645368079        0.000048933891214        0.002577524095720
        0.377345954934780        0.000026449263563        0.000052515575956        0.002748069640635
        0.379764839261285        0.000028122576240        0.000055838016687        0.002902914264567
        0.382183723587790        0.000029773747979        0.000059116463650        0.003053478039893
        0.384602607914295        0.000031266955228        0.000062081298115        0.003186007646740
        0.387021492240800        0.000032729305369        0.000064984830647        0.003313712019469
        0.389440376567305        0.000034008187866        0.000067524112466        0.003421334226405
        0.391859260893810        0.000035247581484        0.000069984952232        0.003523642144388
        0.394278145220315        0.000036280408614        0.000072035677446        0.003604142494895
        0.396697029546820        0.000037265371135        0.000073991329423        0.003678905069714
        0.399115913873325        0.000038023570765        0.000075496766528        0.003730489437587
        0.401534798199830        0.000038725960818        0.000076891355097        0.003775987605018
        0.403953682526335        0.000039184754419        0.000077802306136        0.003797318083051
        0.406372566852840        0.000039580398809        0.000078587835803        0.003812297559395
        0.408791451179345        0.000039719389013        0.000078863802861        0.003802521144716
        0.411210335505850        0.000039788666774        0.000079001317731        0.003786220001453
        0.413629219832355        0.000039592364955        0.000078611550207        0.003744989503039
        0.416048104158860        0.000039320727990        0.000078072167430        0.003697157799328
        0.418466988485365        0.000038779010154        0.000076996566886        0.003624644518052
        0.420885872811870        0.000038157428771        0.000075762360904        0.003545555558692
        0.423304757138375        0.000037265909065        0.000073992222263        0.003442453424181
        0.425723641464880        0.000036291231746        0.000072056938739        0.003332906347722
        0.428142525791385        0.000035051544049        0.000069595509002        0.003200427337330
        0.430561410117890        0.000033726762077        0.000066965089868        0.003061740882779
        0.432980294444395        0.000032146741594        0.000063827928335        0.002901601693597
        0.435399178770900        0.000030481150647        0.000060520832342        0.002735599142320
        0.437818063097405        0.000028574909036        0.000056735959538        0.002549999235097
        0.440236947423910        0.000026584161530        0.000052783266016        0.002358984674481
        0.442655831750415        0.000024372050860        0.000048391092038        0.002150575955933
        0.445074716076920        0.000022078094699        0.000043836379248        0.001937302160656
        0.447493600403425        0.000019586557494        0.000038889406071        0.001709150715500
        0.449912484729930        0.000017017458834        0.000033788399428        0.001476779088252
        0.452331369056435        0.000014278763464        0.000028350695713        0.001232319511852
        0.454750253382940        0.000011468413221        0.000022770685294        0.000984372665521
        0.457169137709445        0.000008520276015        0.000016917136389        0.000727355679783
        0.459588022035950        0.000005507981958        0.000010936167380        0.000467663375013
        0.462006906362455        0.000002393079543        0.000004751507438        0.000202097531815
        0.464425790688960       -0.000000776951987       -0.000001542648546       -0.000065263194993
        0.466844675015465       -0.000004011574494       -0.000007965011232       -0.000335174809229
        0.469263559341970       -0.000007290861069       -0.000014476091734       -0.000605944384045
        0.471682443668475       -0.000010594478310       -0.000021035440938       -0.000875871434050
