#           time (fs)    |     mu_x (e.angstrom)   |     mu_y (e.angstrom)   |     mu_z (e.angstrom)   |
        0.000000000000000       -0.000000000000000       -0.000000000000000        0.000000000000000
        0.002418884326505        0.000000001001271       -0.000000003495384        0.000031619012479
        0.004837768653010        0.000000021238195       -0.000000074141211        0.000335384894150
        0.007256652979515        0.000000060630285       -0.000000211656582        0.000638419704997
        0.009675537306020        0.000000153047417       -0.000000534278923        0.001208878913894
        0.012094421632525        0.000000281200876       -0.000000981654436        0.001777233173478
        0.014513305959030        0.000000494200904       -0.000001725222998        0.002603331681606
        0.016932190285535        0.000000758483056       -0.000002647812487        0.003425354228201
        0.019351074612040        0.000001136220887       -0.000003966463681        0.004490656333392
        0.021769958938545        0.000001579314276       -0.000005513259008        0.005549360810345
        0.024188843265050        0.000002160101284       -0.000007540717553        0.006832348328687
        0.026607727591555        0.000002818444336       -0.000009838895030        0.008105723860732
        0.029026611918060        0.000003633303828       -0.000012683418682        0.009580181781072
        0.031445496244565        0.000004535691188       -0.000015833438202        0.011041588894178
        0.033864380571070        0.000005607099670       -0.000019573406921        0.012677070478670
        0.036283264897575        0.000006773475646       -0.000023644781697        0.014295715079673
        0.038702149224080        0.000008114319897       -0.000028325037863        0.016058078135875
        0.041121033550585        0.000009554793755       -0.000033352877489        0.017799555142043
        0.043539917877090        0.000011167568585       -0.000038981906924        0.019651560097625
        0.045958802203595        0.000012881675221       -0.000044964319254        0.021478457247711
        0.048377686530100        0.000014757941223       -0.000051512344211        0.023380416743582
        0.050796570856605        0.000016734165143       -0.000058408762642        0.025252968241825
        0.053215455183110        0.000018854279905       -0.000065806797869        0.027163437232789
        0.055634339509615        0.000021069854620       -0.000073537280356        0.029040216184398
        0.058053223836120        0.000023402984920       -0.000081677182364        0.030916711003274
        0.060472108162625        0.000025823973951       -0.000090122707410        0.032755349098082
        0.062890992489130        0.000028328390513       -0.000098858225507        0.034555083600357
        0.065309876815635        0.000030910050310       -0.000107861988757        0.036313006190567
        0.067728761142140        0.000033533700859       -0.000117010804719        0.037993632949434
        0.070147645468645        0.000036221120209       -0.000126380498186        0.039628797544859
        0.072566529795150        0.000038902470951       -0.000135727220047        0.041149142105597
        0.074985414121655        0.000041631475900       -0.000145238254735        0.042620768370061
        0.077404298448160        0.000044300606220       -0.000154538309520        0.043941544790986
        0.079823182774665        0.000046998914283       -0.000163937921806        0.045210824359948
        0.082242067101170        0.000049578844456       -0.000172922272488        0.046295320656088
        0.084660951427675        0.000052167446971       -0.000181934435379        0.047326095499998
        0.087079835754180        0.000054575674043       -0.000190315029314        0.048140818156061
        0.089498720080685        0.000056970420970       -0.000198646072090        0.048900216777985
        0.091917604407190        0.000059120633778       -0.000206121912050        0.049415484199303
        0.094336488733695        0.000061233991099       -0.000213466736106        0.049874505669700
        0.096755373060200        0.000063037931650       -0.000219730451062        0.050064981283312
        0.099174257386705        0.000064780877831       -0.000225779216351        0.050199017969790
        0.101593141713210        0.000066150312985       -0.000230523997735        0.050044174661721
        0.104012026039715        0.000067434337785       -0.000234969143333        0.049833465496387
        0.106430910366220        0.000068283102472       -0.000237895903713        0.049317974163488
        0.108849794692725        0.000069022268703       -0.000240439357903        0.048747981393225
        0.111268679019230        0.000069268339800       -0.000241263963224        0.047862017585297
        0.113687563345735        0.000069381366633       -0.000241624393321        0.046923721157383
        0.116106447672240        0.000068948925121       -0.000240084816990        0.045663185072670
        0.118525331998745        0.000068361250179       -0.000238004766952        0.044353290104144
        0.120944216325250        0.000067182688480       -0.000233868014345        0.042719936561537
        0.123363100651755        0.000065828465318       -0.000229120779143        0.041040990707851
        0.125781984978260        0.000063846296752       -0.000222189434387        0.039042467133155
        0.128200869304765        0.000061670284579       -0.000214585524051        0.037002886090150
        0.130619753631270        0.000058838912736       -0.000204703777234        0.034652678000258
        0.133038637957775        0.000055798216284       -0.000194096830377        0.032266678821351
        0.135457522284280        0.000052085523920       -0.000181155852458        0.029583963746117
        0.137876406610785        0.000048151143364       -0.000167447868750        0.026871407110243
        0.140295290937290        0.000043539863085       -0.000151390413150        0.023880819333032
        0.142714175263795        0.000038698016846       -0.000134536186421        0.020866963333534
        0.145133059590300        0.000033186849447       -0.000115360310382        0.017598273232798
        0.147551943916805        0.000027440036535       -0.000095370958561        0.014313442648058
        0.149970828243310        0.000021044487325       -0.000073132773480        0.010801155759123
        0.152389712569815        0.000014412260566       -0.000050078278027        0.007280332087425
        0.154808596896320        0.000007165169262       -0.000024893655835        0.003563214252065
        0.157227481222825       -0.000000315403760        0.000001095658529       -0.000154446977487
        0.159646365549330       -0.000008363658012        0.000029050476659       -0.004033910868329
        0.162065249875835       -0.000016637863339        0.000057783571745       -0.007905627881665
        0.164484134202340       -0.000025419493770        0.000088272497895       -0.011901833039022
        0.166903018528845       -0.000034415179179        0.000119498390828       -0.015881802090068
        0.169321902855350       -0.000043845465047        0.000152227156728       -0.019946671498266
        0.171740787181855       -0.000053473591268        0.000185636836353       -0.023986718185455
        0.174159671508360       -0.000063451691276        0.000220255795315       -0.028070388719164
        0.176578555834865       -0.000073607222580        0.000255485273750       -0.032120656228893
        0.178997440161370       -0.000084017318834        0.000291593308783       -0.036172192610205
        0.181416324487875       -0.000094580442144        0.000328227774747       -0.040181856267004
        0.183835208814380       -0.000105293198488        0.000365377262996       -0.044149981900894
        0.186254093140885       -0.000116130853293        0.000402956283091       -0.048067979074825
        0.188672977467390       -0.000127005165273        0.000440659046938       -0.051901812622811
        0.191091861793895       -0.000137972860190        0.000478682741434       -0.055677576891331
        0.193510746120400       -0.000148857867858        0.000516416897913       -0.059327363441046
        0.195929630446905       -0.000159801753845        0.000554352999056       -0.062911551923552
        0.198348514773410       -0.000170539083284        0.000591570601903       -0.066329377782112
        0.200767399099915       -0.000181298248348        0.000628862285654       -0.069674580756367
        0.203186283426420       -0.000191724443248        0.000664997638610       -0.072815061231292
        0.205605167752925       -0.000202133389201        0.000701072005294       -0.075876483495580
        0.208024052079430       -0.000212082490188        0.000735550511520       -0.078697413520378
        0.210442936405935       -0.000221973748583        0.000769827577376       -0.081433517470490
        0.212861820732440       -0.000231279975272        0.000802074978183       -0.083896475567353
        0.215280705058945       -0.000240486817180        0.000833977028583       -0.086269576615656
        0.217699589385450       -0.000248987306189        0.000863428875546       -0.088340473468494
        0.220118473711955       -0.000257346498913        0.000892390021813       -0.090317279210512
        0.222537358038460       -0.000264884050235        0.000918501219643       -0.091966843006679
        0.224956242364965       -0.000272238613421        0.000943976995262       -0.093518928444413
        0.227375126691470       -0.000278664397596        0.000966231249018       -0.094723120147363
        0.229794011017975       -0.000284866311403        0.000987708077703       -0.095827332284608
        0.232212895344480       -0.000290042490839        0.001005627077029       -0.096567685088593
        0.234631779670985       -0.000294955309808        0.001022631444772       -0.097206471307329
        0.237050663997490       -0.000298757529191        0.001035783619939       -0.097470349688946
        0.239469548323995       -0.000302258857184        0.001047890785854       -0.097632005481809
        0.241888432650500       -0.000304578560207        0.001055899475545       -0.097412780483475
        0.244307316977005       -0.000306562344076        0.001062741562079       -0.097091613337831
        0.246726201303510       -0.000307308876571        0.001065292441049       -0.096388751977229
        0.249145085630015       -0.000307687479121        0.001066565752934       -0.095585159463569
        0.251563969956520       -0.000306789942031        0.001063413378747       -0.094404227442382
        0.253982854283025       -0.000305495958193        0.001058884811745       -0.093124688835154
        0.256401738609530       -0.000302904777584        0.001049858163681       -0.091477267001208
        0.258820622936035       -0.000299892561497        0.001039370578602       -0.089734249035185
        0.261239507262540       -0.000295580747016        0.001024377478196       -0.087637765315798
        0.263658391589045       -0.000290827621882        0.001007853932548       -0.085449543936830
        0.266077275915550       -0.000284791689519        0.000986884253799       -0.082927023689231
        0.268496160242055       -0.000278298816605        0.000964331002473       -0.080317424876447
        0.270915044568560       -0.000270559356447        0.000937458600257       -0.077397163775632
        0.273333928895065       -0.000262352244449        0.000908966797452       -0.074395227675046
        0.275752813221570       -0.000252954119199        0.000876350104559       -0.071110392363417
        0.278171697548075       -0.000243082760289        0.000842096161337       -0.067749966063615
        0.280590581874580       -0.000232094925668        0.000803977427501       -0.064138128804377
        0.283009466201085       -0.000220633549986        0.000764222002452       -0.060457394087930
        0.285428350527590       -0.000208148493703        0.000720925172225       -0.056560008581056
        0.287847234854095       -0.000195194939715        0.000676010796296       -0.052600951886485
        0.290266119180600       -0.000181327741511        0.000627938046219       -0.048462778209544
        0.292685003507105       -0.000167002445527        0.000578285406286       -0.044270610825541
        0.295103887833610       -0.000151889466737        0.000525912385030       -0.039939098140862
        0.297522772160115       -0.000136334080971        0.000472015313946       -0.035561635316647
        0.299941656486620       -0.000120131298084        0.000415885151527       -0.031086271532412
        0.302360540813125       -0.000103506952768        0.000358304394589       -0.026573279716873
        0.304779425139630       -0.000086387955577        0.000299020567992       -0.022004917695929
        0.307198309466135       -0.000068873186816        0.000238376416751       -0.017407439507086
        0.309617193792640       -0.000051026867696        0.000176594578979       -0.012797609678888
        0.312036078119145       -0.000032815238820        0.000113558482672       -0.008167276449715
        0.314454962445650       -0.000014443205509        0.000049977379988       -0.003567495795173
        0.316873846772155        0.000004259344516       -0.000014737337694        0.001044162360528
        0.319292731098660        0.000022945594844       -0.000079385719949        0.005583075014820
        0.321711615425165        0.000041923636908       -0.000145033895823        0.010125311722248
        0.324130499751670        0.000060705739476       -0.000209994805213        0.014553904343453
        0.326549384078175        0.000079737429762       -0.000275810067508        0.018977422372952
        0.328968268404680        0.000098393322801       -0.000340316910048        0.023248252860082
        0.331387152731185        0.000117253619953       -0.000405522739238        0.027505843056571
        0.333806037057690        0.000135560813368       -0.000468808286287        0.031574087900963
        0.336224921384195        0.000154024785724       -0.000532629332243        0.035621232745597
        0.338643805710700        0.000171763674408       -0.000593937031381        0.039445252825221
        0.341062690037205        0.000189609843138       -0.000655610508504        0.043240686337771
        0.343481574363710        0.000206567009844       -0.000714205718696        0.046782542163731
        0.345900458690215        0.000223580672350       -0.000772992698698        0.050288758571285
        0.348319343016720        0.000239552124419       -0.000828173670569        0.053514668119370
        0.350738227343225        0.000255528601992       -0.000883370093483        0.056698372539741
        0.353157111669730        0.000270322886776       -0.000934478518828        0.059579105708478
        0.355575995996235        0.000285070641278       -0.000985425746468        0.062411601011391
        0.357994880322740        0.000298511786718       -0.001031856707196        0.064922805735706
        0.360413764649245        0.000311855352947       -0.001077951449701        0.067380310736344
        0.362832648975750        0.000323785582552       -0.001119162605104        0.069502766836439
        0.365251533302255        0.000335568265939       -0.001159866060207        0.071566662027656
        0.367670417628760        0.000345850441166       -0.001195385922635        0.073286459968669
        0.370089301955265        0.000355936734435       -0.001230231978825        0.074943458092958
        0.372508186281770        0.000364456482197       -0.001259667141404        0.076252100954639
        0.374927070608275        0.000372734159521       -0.001288269509956        0.077494340836839
        0.377345954934780        0.000379401648057       -0.001311310705667        0.078388768925819
        0.379764839261285        0.000385783500848       -0.001333368862498        0.079213832114847
        0.382183723587790        0.000390534833350       -0.001349795751548        0.079696370777373
        0.384602607914295        0.000394960018120       -0.001365099587716        0.080107221662527
        0.387021492240800        0.000397758220171       -0.001374784189427        0.080185453955859
        0.389440376567305        0.000400193195556       -0.001383217288625        0.080190305113758
        0.391859260893810        0.000401028779406       -0.001386125994768        0.079876872053816
        0.394278145220315        0.000401467816462       -0.001387667477076        0.079488977630595
        0.396697029546820        0.000400358912331       -0.001383861605405        0.078801309737490
        0.399115913873325        0.000398824169303       -0.001378586498581        0.078038690663052
        0.401534798199830        0.000395816221069       -0.001368221367936        0.076998675461467
        0.403953682526335        0.000392357380978       -0.001356299490334        0.075883781216336
        0.406372566852840        0.000387522410663       -0.001339622021845        0.074517372204295
        0.408791451179345        0.000382215887024       -0.001321315384309        0.073076684704179
        0.411210335505850        0.000375651339360       -0.001298660256496        0.071413458070471
        0.413629219832355        0.000368599062118       -0.001274319013986        0.069677043989281
        0.416048104158860        0.000360426246981       -0.001246103422655        0.067749710030028
        0.418466988485365        0.000351754047206       -0.001216160429535        0.065750728541832
        0.420885872811870        0.000342116203890       -0.001182877525963        0.063594605293501
        0.423304757138375        0.000331971821847       -0.001147841571484        0.061368778771107
        0.425723641464880        0.000321031834843       -0.001110052674064        0.059021235835716
        0.428142525791385        0.000309582581712       -0.001070500496279        0.056606291493154
        0.430561410117890        0.000297520382916       -0.001028826191252        0.054106172377452
        0.432980294444395        0.000284950491631       -0.000985393387989        0.051541263181465
        0.435399178770900        0.000271960188623       -0.000940503653794        0.048928294702371
        0.437818063097405        0.000258467893994       -0.000893874628086        0.046253408100744
        0.440236947423910        0.000244754668227       -0.000846478134813        0.043567605522227
        0.442655831750415        0.000230549060675       -0.000797375229006        0.040822968641917
        0.445074716076920        0.000216325883016       -0.000748207979170        0.038104045202176
        0.447493600403425        0.000201623583838       -0.000697379966416        0.035329535156026
        0.449912484729930        0.000187107797916       -0.000647193455494        0.032616324517882
        0.452331369056435        0.000172129506997       -0.000595403569282        0.029850892324449
        0.454750253382940        0.000157539333152       -0.000544952653871        0.027180792236769
        0.457169137709445        0.000142506302368       -0.000492966345313        0.024461908603828
        0.459588022035950        0.000128057316663       -0.000442997013153        0.021870353699264
        0.462006906362455        0.000113187803827       -0.000391569631765        0.019233484549640
        0.464425790688960        0.000099089447497       -0.000342806871108        0.016753455727341
        0.466844675015465        0.000084595206573       -0.000292671467599        0.014231574859314
        0.469263559341970        0.000071047381392       -0.000245807433304        0.011893152115619
        0.471682443668475        0.000057130244746       -0.000197662882340        0.009516297794625
