#           time (fs)    |     mu_x (e.angstrom)   |     mu_y (e.angstrom)   |     mu_z (e.angstrom)   |
        0.000000000000000       -0.000000000000000       -0.000000000000000        0.000000000000000
        0.002418884326505       -0.000000023388527       -0.000000018968856        0.000149586073026
        0.004837768653010       -0.000000093555153       -0.000000075877834        0.000299164472722
        0.007256652979515       -0.000000209366117       -0.000000169805054        0.000446315841912
        0.009675537306020       -0.000000390875539       -0.000000317019301        0.000624913771683
        0.012094421632525       -0.000000624485097       -0.000000506486198        0.000798690358224
        0.014513305959030       -0.000000970966790       -0.000000787501852        0.001034818131777
        0.016932190285535       -0.000001383447844       -0.000001122041557        0.001263747742699
        0.019351074612040       -0.000001982875110       -0.000001608209288        0.001584840662529
        0.021769958938545       -0.000002669321546       -0.000002164947628        0.001896371127189
        0.024188843265050       -0.000003641511756       -0.000002953445202        0.002328259003468
        0.026607727591555       -0.000004728365966       -0.000003834933195        0.002748227531085
        0.029026611918060       -0.000006221532404       -0.000005045968854        0.003314630001830
        0.031445496244565       -0.000007862972487       -0.000006377252546        0.003866758523554
        0.033864380571070       -0.000010049402211       -0.000008150559539        0.004588814553089
        0.036283264897575       -0.000012422866260       -0.000010075549987        0.005294239443402
        0.038702149224080       -0.000015493818163       -0.000012566248649        0.006190078878227
        0.041121033550585       -0.000018794762733       -0.000015243470775        0.007066922950569
        0.043539917877090       -0.000022954697993       -0.000018617389134        0.008151287387997
        0.045958802203595       -0.000027390705654       -0.000022215202667        0.009214281431577
        0.048377686530100       -0.000032850978688       -0.000026643759502        0.010498200911967
        0.050796570856605       -0.000038635345283       -0.000031335157922        0.011758361285988
        0.053215455183110       -0.000045607496694       -0.000036989923018        0.013248892461333
        0.055634339509615       -0.000052952442019       -0.000042947027083        0.014713260396790
        0.058053223836120       -0.000061641245714       -0.000049994082097        0.016413290866471
        0.060472108162625       -0.000070750901642       -0.000057382452862        0.018084738154495
        0.062890992489130       -0.000081347325760       -0.000065976682303        0.019992860605589
        0.065309876815635       -0.000092410662967       -0.000074949584347        0.021869965288009
        0.067728761142140       -0.000105084908577       -0.000085229029612        0.023980423947815
        0.070147645468645       -0.000118268766841       -0.000095921778258        0.026057418486093
        0.072566529795150       -0.000133163549108       -0.000108002188337        0.028360129206323
        0.074985414121655       -0.000148605936435       -0.000120526714914        0.030626922407891
        0.077404298448160       -0.000165830170229       -0.000134496425110        0.033107566473597
        0.079823182774665       -0.000183633992834       -0.000148936191649        0.035549839220712
        0.082242067101170       -0.000203257038461       -0.000164851456587        0.038190029734570
        0.084660951427675       -0.000223484416784       -0.000181256845831        0.040789403313005
        0.087079835754180       -0.000245531031749       -0.000199137745095        0.043566921770652
        0.089498720080685       -0.000268198347434       -0.000217522043346        0.046301196357571
        0.091917604407190       -0.000292644477118       -0.000237349067510        0.049190295826301
        0.094336488733695       -0.000317718282309       -0.000257685146866        0.052033755492915
        0.096755373060200       -0.000344487806306       -0.000279396558620        0.055005525658124
        0.099174257386705       -0.000371881710037       -0.000301614351680        0.057929305097010
        0.101593141713210       -0.000400844242082       -0.000325104401461        0.060952093371248
        0.104012026039715       -0.000430416869286       -0.000349089245976        0.063924600493183
        0.106430910366220       -0.000461386687508       -0.000374207304356        0.066964482412585
        0.108849794692725       -0.000492940784602       -0.000399799217820        0.069951869994270
        0.111268679019230       -0.000525676945782       -0.000426349868169        0.072973161275409
        0.113687563345735       -0.000558959683416       -0.000453343793353        0.075939839995699
        0.116106447672240       -0.000593167350409       -0.000481087908446        0.078905641908295
        0.118525331998745       -0.000627871849233       -0.000509234950880        0.081814826401883
        0.120944216325250       -0.000663204835382       -0.000537891756541        0.084687595542016
        0.123363100651755       -0.000698972915152       -0.000566901414172        0.087501874538028
        0.125781984978260       -0.000735037423757       -0.000596151522160        0.090244007671701
        0.128200869304765       -0.000771463550266       -0.000625694886511        0.092925928878938
        0.130619753631270       -0.000807823061636       -0.000655184258159        0.095500353272812
        0.133038637957775       -0.000844459440379       -0.000684898145548        0.098013013428812
        0.135457522284280       -0.000880640674150       -0.000714242927487        0.100383772995923
        0.137876406610785       -0.000917003414835       -0.000743734878756        0.102691403415525
        0.140295290937290       -0.000952503271615       -0.000772527032930        0.104824231078199
        0.142714175263795       -0.000988079524084       -0.000801381101028        0.106892769117970
        0.145133059590300       -0.001022372888563       -0.000829194733391        0.108755636024058
        0.147551943916805       -0.001056628828929       -0.000856977960539        0.110553273117989
        0.149970828243310       -0.001089177096785       -0.000883376236790        0.112116905733946
        0.152389712569815       -0.001121566622993       -0.000909645707012        0.113614603047002
        0.154808596896320       -0.001151826796697       -0.000934188229732        0.114852959683574
        0.157227481222825       -0.001181800775698       -0.000958498568774        0.116024922964756
        0.159646365549330       -0.001209234959916       -0.000980749078662        0.116915621957817
        0.162065249875835       -0.001236250854567       -0.001002660261892        0.117739727842980
        0.164484134202340       -0.001260335970716       -0.001022194516738        0.118264420401378
        0.166903018528845       -0.001283867663648       -0.001041279836793        0.118722587206523
        0.169321902855350       -0.001304105195339       -0.001057693515509        0.118867268837045
        0.171740787181855       -0.001323652819624       -0.001073547555454        0.118945765781792
        0.174159671508360       -0.001339578396612       -0.001086464031122        0.118701021194094
        0.176578555834865       -0.001354677979263       -0.001098710485805        0.118390710988171
        0.178997440161370       -0.001365870607028       -0.001107788311323        0.117751888453957
        0.181416324487875       -0.001376103331332       -0.001116087499594        0.117048399251273
        0.183835208814380       -0.001382194076774       -0.001121027452191        0.116015711525578
        0.186254093140885       -0.001387194973208       -0.001125083365662        0.114919535384378
        0.188672977467390       -0.001387874923966       -0.001125634902304        0.113498085475322
        0.191091861793895       -0.001387340806948       -0.001125201642443        0.112014601641712
        0.193510746120400       -0.001382368132649       -0.001121168626848        0.110214332920547
        0.195929630446905       -0.001376064611572       -0.001116056091278        0.108353755458559
        0.198348514773410       -0.001365270569537       -0.001107301664843        0.106189326816009
        0.200767399099915       -0.001353037977288       -0.001097380355658        0.103966577321916
        0.203186283426420       -0.001336331722837       -0.001083830838854        0.101457165281059
        0.205605167752925       -0.001318089822986       -0.001069035680381        0.098891672624189
        0.208024052079430       -0.001295461905054       -0.001050683407870        0.096060703495957
        0.210442936405935       -0.001271213259988       -0.001031016478386        0.093176133704145
        0.212861820732440       -0.001242737706066       -0.001007921490022        0.090050950000333
        0.215280705058945       -0.001212569612011       -0.000983453591147        0.086874870536779
        0.217699589385450       -0.001178404531997       -0.000955744121729        0.083486336919494
        0.220118473711955       -0.001142489452858       -0.000926615130289        0.080049820661076
        0.222537358038460       -0.001102876118788       -0.000894486863183        0.076431875689336
        0.224956242364965       -0.001061470578486       -0.000860904832833        0.072769050896978
        0.227375126691470       -0.001016730965845       -0.000824618905862        0.068958211714551
        0.229794011017975       -0.000970172887873       -0.000786857909332        0.065105765167714
        0.232212895344480       -0.000920705693730       -0.000746737685296        0.061140593046232
        0.234631779670985       -0.000869410206454       -0.000705134412270        0.057137234280751
        0.237050663997490       -0.000815685389411       -0.000661561050578        0.053057769575151
        0.239469548323995       -0.000760139145582       -0.000616510200543        0.048943664803264
        0.241888432650500       -0.000702691061961       -0.000569917090333        0.044790840381219
        0.244307316977005       -0.000643445150507       -0.000521865623675        0.040607025172825
        0.246726201303510       -0.000582864389682       -0.000472731761872        0.036422067736484
        0.249145085630015       -0.000520525946368       -0.000422172095714        0.032209847892270
        0.251563969956520       -0.000457449995139       -0.000371014515380        0.028033676812292
        0.253982854283025       -0.000392672645696       -0.000318476772478        0.023834027055267
        0.256401738609530       -0.000327775536503       -0.000265842147013        0.019706660379369
        0.258820622936035       -0.000261248830643       -0.000211885586220        0.015559630527236
        0.261239507262540       -0.000195229950752       -0.000158341153062        0.011519607706585
        0.263658391589045       -0.000127667967667       -0.000103544927822        0.007463745861892
        0.266077275915550       -0.000061240225666       -0.000049668890895        0.003547576459961
        0.268496160242055        0.000006630449385        0.000005377702337       -0.000380621530404
        0.270915044568560        0.000072752887695        0.000059006119419       -0.004138974316098
        0.273333928895065        0.000140205600653        0.000113713728412       -0.007905580321138
        0.275752813221570        0.000205319783056        0.000166524396773       -0.011475173076347
        0.278171697548075        0.000271640435596        0.000220313852642       -0.015049298838209
        0.280590581874580        0.000335067069303        0.000271755832343       -0.018402630760494
        0.283009466201085        0.000399566696732        0.000324068350839       -0.021756849251232
        0.285428350527590        0.000460662334283        0.000373619774239       -0.024870227707007
        0.287847234854095        0.000522689399906        0.000423926927083       -0.027980937036261
        0.290266119180600        0.000580858131206        0.000471104481667       -0.030834780118051
        0.292685003507105        0.000639810301790        0.000518917747030       -0.033682504299954
        0.295103887833610        0.000694514723899        0.000563285572449       -0.036261575701890
        0.297522772160115        0.000749849896816        0.000608165278497       -0.038831197636716
        0.299941656486620        0.000800621143020        0.000649343100652       -0.041124770285285
        0.302360540813125        0.000851867505973        0.000690906584479       -0.043405693429727
        0.304779425139630        0.000898314129790        0.000728576920886       -0.045407639478236
        0.307198309466135        0.000945079048562        0.000766505736907       -0.047393875847686
        0.309617193792640        0.000986894576387        0.000800420022278       -0.049102681846162
        0.312036078119145        0.001028872124519        0.000834466049164       -0.050792865192354
        0.314454962445650        0.001065841112343        0.000864449547707       -0.052211572458976
        0.316873846772155        0.001102818078715        0.000894439860822       -0.053608896676669
        0.319292731098660        0.001134820533322        0.000920395252058       -0.054744968102224
        0.321711615425165        0.001166680768945        0.000946235648913       -0.055857052119490
        0.324130499751670        0.001193694821787        0.000968145196328       -0.056722167813716
        0.326549384078175        0.001220421815237        0.000989822285382       -0.057560849393320
        0.328968268404680        0.001242524567382        0.001007748521727       -0.058170634713678
        0.331387152731185        0.001264202168815        0.001025330309591       -0.058751696720657
        0.333806037057690        0.001281568657392        0.001039415198623       -0.059125387293832
        0.336224921384195        0.001298379903408        0.001053050136963       -0.059468221051095
        0.338643805710700        0.001311280173421        0.001063512698544       -0.059628270391086
        0.341062690037205        0.001323504198799        0.001073427179341       -0.059755481736448
        0.343481574363710        0.001332298498421        0.001080559592588       -0.059727117967472
        0.345900458690215        0.001340305555275        0.001087053908430       -0.059664082529413
        0.348319343016720        0.001345437707323        0.001091216135656       -0.059474821526055
        0.350738227343225        0.001349682347130        0.001094658950020       -0.059249196540386
        0.353157111669730        0.001351671383752        0.001096271952051       -0.058928319491280
        0.355575995996235        0.001352683892295        0.001097093352626       -0.058569520176806
        0.357994880322740        0.001352114073468        0.001096630993308       -0.058147524153201
        0.360413764649245        0.001350490282596        0.001095314228829       -0.057686173242215
        0.362832648975750        0.001347999651228        0.001093293992651       -0.057194203801088
        0.365251533302255        0.001344389283785        0.001090366020068       -0.056661563271894
        0.367670417628760        0.001340656940545        0.001087338691413       -0.056130838437961
        0.370089301955265        0.001335750675332        0.001083359684940       -0.055558232814158
        0.372508186281770        0.001331482984150        0.001079898160061       -0.055019467960167
        0.374927070608275        0.001325998455772        0.001075450156376       -0.054437708718287
        0.377345954934780        0.001321914415735        0.001072137579275       -0.053920551893002
        0.379764839261285        0.001316581389044        0.001067812453261       -0.053359372550635
        0.382183723587790        0.001313397429604        0.001065229883847       -0.052891859684991
        0.384602607914295        0.001308942409592        0.001061616866470       -0.052379371021111
        0.387021492240800        0.001307356883038        0.001060330703178       -0.051987410172507
        0.389440376567305        0.001304487437964        0.001058003666783       -0.051549584757562
        0.391859260893810        0.001305165095510        0.001058553055910       -0.051256478129415
        0.394278145220315        0.001304554183199        0.001058057802082       -0.050916672913945
        0.396697029546820        0.001308110928378        0.001060942272028       -0.050742684814241
        0.399115913873325        0.001310381522584        0.001062784062828       -0.050521209943341
        0.401534798199830        0.001317369737517        0.001068451622971       -0.050483188126476
        0.403953682526335        0.001323080052676        0.001073083197493       -0.050396929418169
        0.406372566852840        0.001333974789021        0.001081919138355       -0.050507986396704
        0.408791451179345        0.001343604397352        0.001089729453019       -0.050570088053638
        0.411210335505850        0.001358790714074        0.001102046076574       -0.050839347982078
        0.413629219832355        0.001372727838710        0.001113349999237       -0.051058961110124
        0.416048104158860        0.001392489553439        0.001129377495699       -0.051491376746430
        0.418466988485365        0.001411019805135        0.001144406670581       -0.051873478146393
        0.420885872811870        0.001435529904735        0.001164285340897       -0.052469721207267
        0.423304757138375        0.001458826707877        0.001183180423608       -0.053015005706611
        0.425723641464880        0.001488139637399        0.001206954425419       -0.053771432671322
        0.428142525791385        0.001516256563856        0.001229758865339       -0.054476280993923
        0.430561410117890        0.001550302581697        0.001257371634732       -0.055384975103052
        0.432980294444395        0.001583167779009        0.001284027156001       -0.056241497961598
        0.435399178770900        0.001621749530402        0.001315318628446       -0.057290386827902
        0.437818063097405        0.001659162394520        0.001345662531392       -0.058286544592430
        0.440236947423910        0.001701953816230        0.001380368253395       -0.059459591518294
        0.442655831750415        0.001743584019218        0.001414132625953       -0.060579387492903
        0.445074716076920        0.001790131646245        0.001451884814858       -0.061856853300188
        0.447493600403425        0.001835520586876        0.001488697709075       -0.063080597355547
        0.449912484729930        0.001885247288011        0.001529028282793       -0.064439368305281
        0.452331369056435        0.001933811988934        0.001568416875609       -0.065744006393244
        0.454750253382940        0.001986023113079        0.001610762437592       -0.067157982629402
        0.457169137709445        0.002037062543050        0.001652158158484       -0.068517486571915
        0.459588022035950        0.002090954413190        0.001695866886762       -0.069958024487363
        0.462006906362455        0.002143658167773        0.001738612458206       -0.071343835406227
        0.464425790688960        0.002198328815334        0.001782952811487       -0.072780236418513
        0.466844675015465        0.002251788045282        0.001826311112406       -0.074161754273308
        0.469263559341970        0.002306250035135        0.001870482231795       -0.075561791728585
        0.471682443668475        0.002359470469224        0.001913646859711       -0.076906902671557
