#           time (fs)    |     mu_x (e.angstrom)   |     mu_y (e.angstrom)   |     mu_z (e.angstrom)   |
        0.000000000000000       -0.000000000000000       -0.000000000000000        0.000000000000000
        0.002418884326505       -0.000000004831335       -0.000000006008851        0.000063099067555
        0.004837768653010       -0.000000050881371       -0.000000063281253        0.000332244954499
        0.007256652979515       -0.000000137928891       -0.000000171542683        0.000600406376691
        0.009675537306020       -0.000000330352267       -0.000000410859647        0.001078472344108
        0.012094421632525       -0.000000595218240       -0.000000740274261        0.001554458909902
        0.014513305959030       -0.000001029619499       -0.000001280539284        0.002240677717539
        0.016932190285535       -0.000001567413529       -0.000001949394859        0.002923618065532
        0.019351074612040       -0.000002336718323       -0.000002906179498        0.003813576523364
        0.021769958938545       -0.000003239273857       -0.000004028688911        0.004698967118096
        0.024188843265050       -0.000004430981636       -0.000005510815599        0.005784665644773
        0.026607727591555       -0.000005784127235       -0.000007193722654        0.006864432074509
        0.029026611918060       -0.000007477671303       -0.000009299980813        0.008134402916438
        0.031445496244565       -0.000009358619399       -0.000011639311909        0.009397019629669
        0.033864380571070       -0.000011622895371       -0.000014455383223        0.010836501926569
        0.036283264897575       -0.000014097809031       -0.000017533420151        0.012267168562129
        0.038702149224080       -0.000016988929371       -0.000021129084764        0.013858337507103
        0.041121033550585       -0.000020110724079       -0.000025011629540        0.015439209039257
        0.043539917877090       -0.000023670051845       -0.000029438319301        0.017161455487830
        0.045958802203595       -0.000027476484583       -0.000034172316157        0.018871922519302
        0.048377686530100       -0.000031728993791       -0.000039461073978        0.020702178568120
        0.050796570856605       -0.000036241085852       -0.000045072646369        0.022519193276027
        0.053215455183110       -0.000041194089117       -0.000051232542410        0.024432298572245
        0.055634339509615       -0.000046414922211       -0.000057725494402        0.026330741058433
        0.058053223836120       -0.000052057198712       -0.000064742540351        0.028299843927994
        0.060472108162625       -0.000057971116190       -0.000072097362148        0.030252923058897
        0.062890992489130       -0.000064272464610       -0.000079933954442        0.032249909967056
        0.065309876815635       -0.000070844701191       -0.000088107361329        0.034229592219638
        0.067728761142140       -0.000077755933343       -0.000096702273054        0.036225538609386
        0.070147645468645       -0.000084932687705       -0.000105627295808        0.038202997978150
        0.072566529795150       -0.000092386069250       -0.000114896225390        0.040168633178814
        0.074985414121655       -0.000100095024498       -0.000124482858542        0.042114714851139
        0.077404298448160       -0.000108005159577       -0.000134319531443        0.044020893515655
        0.079823182774665       -0.000116156447064       -0.000144455933875        0.045906583794066
        0.082242067101170       -0.000124421594174       -0.000154733741577        0.047724756212420
        0.084660951427675       -0.000132909186597       -0.000165287972004        0.049521651055891
        0.087079835754180       -0.000141412983649       -0.000175862120866        0.051224324705216
        0.089498720080685       -0.000150116494050       -0.000186684379101        0.052905089278481
        0.091917604407190       -0.000158730061553       -0.000197394510390        0.054466274106680
        0.094336488733695       -0.000167516915897       -0.000208319844070        0.056005085866124
        0.096755373060200       -0.000176101298795       -0.000218993075911        0.057400716063098
        0.099174257386705       -0.000184829241447       -0.000229844501923        0.058773684167640
        0.101593141713210       -0.000193238142403       -0.000240298834217        0.059982009551996
        0.104012026039715       -0.000201758026222       -0.000250890814471        0.061167563763228
        0.106430910366220       -0.000209840776311       -0.000260938829271        0.062169504396713
        0.108849794692725       -0.000217999582335       -0.000271081032089        0.063148747118487
        0.111268679019230       -0.000225604289321       -0.000280533814661        0.063928205347755
        0.113687563345735       -0.000233248315384       -0.000290035085913        0.064685221043828
        0.116106447672240       -0.000240225125076       -0.000298706285871        0.065229345850336
        0.118525331998745       -0.000247203278168       -0.000307378748411        0.065751462760461
        0.120944216325250       -0.000253407680989       -0.000315088696105        0.066050862063729
        0.123363100651755       -0.000259574804939       -0.000322751892001        0.066328861903157
        0.125781984978260       -0.000264870917756       -0.000329331682792        0.066377759298377
        0.128200869304765       -0.000270091085943       -0.000335816670552        0.066406031461111
        0.130619753631270       -0.000274354838570       -0.000341112128843        0.066202364766059
        0.133038637957775       -0.000278504540872       -0.000346265447298        0.065979002445354
        0.135457522284280       -0.000281626697393       -0.000350140883205        0.065524462369664
        0.137876406610785       -0.000284597851524       -0.000353828294966        0.065051298945963
        0.140295290937290       -0.000286486798809       -0.000356169969363        0.064351307163132
        0.142714175263795       -0.000288189518580       -0.000358279899816        0.063633892175085
        0.145133059590300       -0.000288773757921       -0.000358999118037        0.062697519058678
        0.147551943916805       -0.000289138814708       -0.000359445710681        0.061745034051533
        0.149970828243310       -0.000288369097482       -0.000358481471480        0.060584857316172
        0.152389712569815       -0.000287350016323       -0.000357207186865        0.059409972838043
        0.154808596896320       -0.000285201070769       -0.000354528321047        0.058041879287109
        0.157227481222825       -0.000282775808871       -0.000351506014674        0.056660555261572
        0.159646365549330       -0.000279247612459       -0.000347112757136        0.055103488771635
        0.162065249875835       -0.000275419775429       -0.000342347181103        0.053534721399400
        0.164484134202340       -0.000270538335724       -0.000336272130583        0.051810381151106
        0.166903018528845       -0.000265337895397       -0.000329800814553        0.050075900369111
        0.169321902855350       -0.000259155511584       -0.000322109247025        0.048208394151417
        0.171740787181855       -0.000252638998733       -0.000314002725845        0.046332316490471
        0.174159671508360       -0.000245233986029       -0.000304792240013        0.044347774646372
        0.176578555834865       -0.000237484141360       -0.000295153607942        0.042356217065165
        0.178997440161370       -0.000228960011046       -0.000284553094428        0.040282373300336
        0.181416324487875       -0.000220084888535       -0.000273516879188        0.038203034222210
        0.183835208814380       -0.000210568987244       -0.000261684818510        0.036068780052438
        0.186254093140885       -0.000200700514783       -0.000249415181908        0.033930494381010
        0.188672977467390       -0.000190342137693       -0.000236537289990        0.031765414440776
        0.191091861793895       -0.000179634151093       -0.000223225575595        0.029597689772132
        0.193510746120400       -0.000168602154569       -0.000209511829058        0.027431585537332
        0.195929630446905       -0.000157227931889       -0.000195373490870        0.025264127112323
        0.198348514773410       -0.000145707881764       -0.000181054577434        0.023126536799171
        0.200767399099915       -0.000133857215552       -0.000166325536594        0.020988768943446
        0.203186283426420       -0.000122048117333       -0.000151648788363        0.018908491428743
        0.205605167752925       -0.000109923972434       -0.000136581277342        0.016829083306426
        0.208024052079430       -0.000098034639088       -0.000121806156270        0.014833713869439
        0.210442936405935       -0.000085849453000       -0.000106664121391        0.012840117326512
        0.212861820732440       -0.000074094574446       -0.000092057336590        0.010955602839526
        0.215280705058945       -0.000062066265565       -0.000077111480050        0.009073609934887
        0.217699589385450       -0.000050662251335       -0.000062941825602        0.007323830829685
        0.220118473711955       -0.000039010007679       -0.000048464376982        0.005577158347405
        0.222537358038460       -0.000028170680282       -0.000034997386339        0.003983544262638
        0.224956242364965       -0.000017110607219       -0.000021256700892        0.002393452072085
        0.227375126691470       -0.000007042828396       -0.000008749219640        0.000974637547668
        0.229794011017975        0.000003216461612        0.000003995693871       -0.000440412864721
        0.232212895344480        0.000012317146457        0.000015300911342       -0.001668886927206
        0.234631779670985        0.000021578916142        0.000026805826892       -0.002893528081407
        0.237050663997490        0.000029532528570        0.000036685389464       -0.003919462218439
        0.239469548323995        0.000037616182924        0.000046726156158       -0.004941665494438
        0.241888432650500        0.000044262370606        0.000054981069740       -0.005756394597533
        0.244307316977005        0.000051007521909        0.000063358652930       -0.006567660226713
        0.246726201303510        0.000056209341659        0.000069819011205       -0.007166188336595
        0.249145085630015        0.000061479587760        0.000076364177515       -0.007761677342197
        0.251563969956520        0.000065126931499        0.000080893409466       -0.008142752039325
        0.253982854283025        0.000068813266484        0.000085470955621       -0.008521357896078
        0.256401738609530        0.000070825854409        0.000087969536124       -0.008687483005673
        0.258820622936035        0.000072849636275        0.000090481968235       -0.008851841785974
        0.261239507262540        0.000073179508426        0.000090890506445       -0.008809228137067
        0.263658391589045        0.000073494915419        0.000091281085041       -0.008765666929491
        0.266077275915550        0.000072128361117        0.000089582715556       -0.008524121933371
        0.268496160242055        0.000070724276889        0.000087837792159       -0.008282546341007
        0.270915044568560        0.000067683151164        0.000084059805814       -0.007855304167043
        0.273333928895065        0.000064584428700        0.000080210388891       -0.007429026700571
        0.275752813221570        0.000059926815595        0.000074425053341       -0.006832521809304
        0.278171697548075        0.000055194880749        0.000068547554972       -0.006238033965620
        0.280590581874580        0.000049015075108        0.000060872089712       -0.005491621693697
        0.283009466201085        0.000042747842446        0.000053088218952       -0.004748313438964
        0.285428350527590        0.000035175634238        0.000043683904844       -0.003873942202435
        0.287847234854095        0.000027506720430        0.000034159689299       -0.003003773443507
        0.290266119180600        0.000018705978616        0.000023230108737       -0.002025613921222
        0.292685003507105        0.000009803211648        0.000012174042071       -0.001052743337612
        0.295103887833610       -0.000000030222147       -0.000000037537645        0.000003219297617
        0.297522772160115       -0.000009966986383       -0.000012377208067        0.001052841989830
        0.299941656486620       -0.000020608070895       -0.000025591279084        0.002159246118625
        0.302360540813125       -0.000031349799744       -0.000038930093655        0.003258317799931
        0.304779425139630       -0.000042547697224       -0.000052835134349        0.004386886511591
        0.307198309466135       -0.000053839662217       -0.000066856744728        0.005507211027009
        0.309617193792640       -0.000065321722528       -0.000081114167891        0.006629228830929
        0.312036078119145       -0.000076887559577       -0.000095475379823        0.007742192554857
        0.314454962445650       -0.000088363824125       -0.000109725126366        0.008828989836952
        0.316873846772155       -0.000099910110491       -0.000124061584212        0.009906044642144
        0.319292731098660       -0.000111078263845       -0.000137928272743        0.010929481920678
        0.321711615425165       -0.000122299538422       -0.000151860694419        0.011942627628304
        0.324130499751670       -0.000132850225580       -0.000164960224713        0.012875571656099
        0.326549384078175       -0.000143434369192       -0.000178101083466        0.013797830040140
        0.328968268404680       -0.000153056787817       -0.000190047581104        0.014614613919928
        0.331387152731185       -0.000162690671697       -0.000202008119950        0.015420486462337
        0.333806037057690       -0.000171078341598       -0.000212421100589        0.016097346187559
        0.336224921384195       -0.000179453645222       -0.000222818556527        0.016763248029378
        0.338643805710700       -0.000186310251865       -0.000231330181497        0.017278728230919
        0.341062690037205       -0.000193129346008       -0.000239795090015        0.017783391135783
        0.343481574363710       -0.000198174551227       -0.000246057380415        0.018118713301037
        0.345900458690215       -0.000203156338595       -0.000252240826503        0.018443550936420
        0.348319343016720       -0.000206131449911       -0.000255932700864        0.018582937964118
        0.350738227343225       -0.000209017054131       -0.000259513380796        0.018712367405597
        0.353157111669730       -0.000209690444339       -0.000260347381696        0.018643319059570
        0.355575995996235       -0.000210248638514       -0.000261038340465        0.018565033125831
        0.357994880322740       -0.000208420809465       -0.000258766918393        0.018278547743070
        0.360413764649245       -0.000206453077957       -0.000256321830776        0.017983733564040
        0.362832648975750       -0.000201961266734       -0.000250743058911        0.017474472245162
        0.365251533302255       -0.000197306398360       -0.000244961927831        0.016957972340298
        0.367670417628760       -0.000190028630383       -0.000235924529317        0.016224362790134
        0.370089301955265       -0.000182566747691       -0.000226658683302        0.015484775874865
        0.372508186281770       -0.000172425249470       -0.000214066262851        0.014529054052322
        0.374927070608275       -0.000162081187218       -0.000201222544920        0.013568773782522
        0.377345954934780       -0.000149045081502       -0.000185036929076        0.012396962545682
        0.379764839261285       -0.000135791037685       -0.000168580982152        0.011222153436372
        0.382183723587790       -0.000119878255448       -0.000148824587093        0.009843978413730
        0.384602607914295       -0.000103735650076       -0.000128783155780        0.008464489211484
        0.387021492240800       -0.000085014006905       -0.000105540317857        0.006893233175324
        0.389440376567305       -0.000066054497091       -0.000082002502998        0.005322449006137
        0.391859260893810       -0.000044641895907       -0.000055419725040        0.003574747051058
        0.394278145220315       -0.000022987510299       -0.000028537145478        0.001829382688505
        0.396697029546820        0.000000948752293        0.000001177769055       -0.000075038490745
        0.399115913873325        0.000025126381159        0.000031191933902       -0.001975200906242
        0.401534798199830        0.000051371211550        0.000063771866965       -0.004013835405786
        0.403953682526335        0.000077852522281        0.000096644960058       -0.006046259934049
        0.406372566852840        0.000106145519763        0.000131766572933       -0.008194181600912
        0.408791451179345        0.000134665593258        0.000167169654004       -0.010333938231810
        0.411210335505850        0.000164704406772        0.000204457556228       -0.012564200309909
        0.413629219832355        0.000194956405615        0.000242009672936       -0.014784364956391
        0.416048104158860        0.000226400914611        0.000281041613184       -0.017068433850503
        0.418466988485365        0.000258040346443        0.000320315094095       -0.019340522028154
        0.420885872811870        0.000290517607246        0.000360628100333       -0.021648738042673
        0.423304757138375        0.000323167352005        0.000401154795183       -0.023943165091759
        0.425723641464880        0.000356277236065        0.000442252172802       -0.026245222545251
        0.428142525791385        0.000389533261970        0.000483530546945       -0.028531782803102
        0.430561410117890        0.000422854698396        0.000524889626327       -0.030797221590530
        0.432980294444395        0.000456292377661        0.000566392599052       -0.033045578600468
        0.435399178770900        0.000489390099887        0.000607473108448       -0.035244279077817
        0.437818063097405        0.000522571022657        0.000648656509371       -0.037424458730711
        0.440236947423910        0.000555002708093        0.000688909435347       -0.039527131734418
        0.442655831750415        0.000587481882216        0.000729220939602       -0.041610010183141
        0.445074716076920        0.000618805564627        0.000768097725991       -0.043588674070116
        0.447493600403425        0.000650138879874        0.000806986117733       -0.045546452336484
        0.449912484729930        0.000679920507075        0.000843948045132       -0.047374889138113
        0.452331369056435        0.000709672335447        0.000880872650195       -0.049181546544734
        0.454750253382940        0.000737493340012        0.000915400231915       -0.050835729666511
        0.457169137709445        0.000765244138981        0.000949840354453       -0.052467448568850
        0.459588022035950        0.000790708886993        0.000981442581464       -0.053925934930721
        0.462006906362455        0.000816062670093        0.001012906776321       -0.055361489691969
        0.464425790688960        0.000838805652732        0.001041130043395       -0.056605769785374
        0.466844675015465        0.000861397191832        0.001069165055795       -0.057826873520775
        0.469263559341970        0.000881089826770        0.001093601603640       -0.058841673547443
        0.471682443668475        0.000900591452747        0.001117800810663       -0.059833276856147
