#     time (fs)  |  E_x (eV/ang)  | E_y (eV/ang) | E_z (eV/ang)
     0.00000000     0.00000000     0.00000000     0.23971548
     0.00241888     0.01126117     0.01126117     0.23958315
     0.00483777     0.02250991     0.02250991     0.23918630
     0.00725665     0.03373379     0.03373379     0.23852537
     0.00967554     0.04492043     0.04492043     0.23760110
     0.01209442     0.05605748     0.05605748     0.23641450
     0.01451331     0.06713263     0.06713263     0.23496688
     0.01693219     0.07813367     0.07813367     0.23325984
     0.01935107     0.08904844     0.08904844     0.23129527
     0.02176996     0.09986489     0.09986489     0.22907533
     0.02418884     0.11057109     0.11057109     0.22660247
     0.02660773     0.12115520     0.12115520     0.22387943
     0.02902661     0.13160556     0.13160556     0.22090922
     0.03144550     0.14191061     0.14191061     0.21769510
     0.03386438     0.15205899     0.15205899     0.21424063
     0.03628326     0.16203948     0.16203948     0.21054963
     0.03870215     0.17184107     0.17184107     0.20662617
     0.04112103     0.18145293     0.18145293     0.20247457
     0.04353992     0.19086446     0.19086446     0.19809944
     0.04595880     0.20006526     0.20006526     0.19350558
     0.04837769     0.20904517     0.20904517     0.18869808
     0.05079657     0.21779429     0.21779429     0.18368225
     0.05321546     0.22630294     0.22630294     0.17846362
     0.05563434     0.23456174     0.23456174     0.17304795
     0.05805322     0.24256157     0.24256157     0.16744123
     0.06047211     0.25029359     0.25029359     0.16164964
     0.06289099     0.25774927     0.25774927     0.15567958
     0.06530988     0.26492038     0.26492038     0.14953763
     0.06772876     0.27179900     0.27179900     0.14323059
     0.07014765     0.27837754     0.27837754     0.13676541
     0.07256653     0.28464873     0.28464873     0.13014923
     0.07498541     0.29060564     0.29060564     0.12338936
     0.07740430     0.29624171     0.29624171     0.11649326
     0.07982318     0.30155070     0.30155070     0.10946854
     0.08224207     0.30652677     0.30652677     0.10232296
     0.08466095     0.31116440     0.31116440     0.09506441
     0.08707984     0.31545849     0.31545849     0.08770090
     0.08949872     0.31940429     0.31940429     0.08024057
     0.09191760     0.32299745     0.32299745     0.07269164
     0.09433649     0.32623400     0.32623400     0.06506246
     0.09675537     0.32911036     0.32911036     0.05736144
     0.09917426     0.33162336     0.33162336     0.04959709
     0.10159314     0.33377023     0.33377023     0.04177798
     0.10401203     0.33554859     0.33554859     0.03391275
     0.10643091     0.33695648     0.33695648     0.02601008
     0.10884979     0.33799235     0.33799235     0.01807869
     0.11126868     0.33865506     0.33865506     0.01012733
     0.11368756     0.33894386     0.33894386     0.00216480
     0.11610645     0.33885845     0.33885845    -0.00580012
     0.11852533     0.33839891     0.33839891    -0.01375864
     0.12094422     0.33756576     0.33756576    -0.02170197
     0.12336310     0.33635992     0.33635992    -0.02962134
     0.12578198     0.33478271     0.33478271    -0.03750800
     0.12820087     0.33283587     0.33283587    -0.04535325
     0.13061975     0.33052157     0.33052157    -0.05314843
     0.13303864     0.32784234     0.32784234    -0.06088493
     0.13545752     0.32480115     0.32480115    -0.06855421
     0.13787641     0.32140137     0.32140137    -0.07614780
     0.14029529     0.31764673     0.31764673    -0.08365732
     0.14271418     0.31354139     0.31354139    -0.09107448
     0.14513306     0.30908987     0.30908987    -0.09839108
     0.14755194     0.30429710     0.30429710    -0.10559905
     0.14997083     0.29916837     0.29916837    -0.11269043
     0.15238971     0.29370933     0.29370933    -0.11965740
     0.15480860     0.28792602     0.28792602    -0.12649225
     0.15722748     0.28182482     0.28182482    -0.13318745
     0.15964637     0.27541247     0.27541247    -0.13973560
     0.16206525     0.26869604     0.26869604    -0.14612948
     0.16448413     0.26168295     0.26168295    -0.15236201
     0.16690302     0.25438094     0.25438094    -0.15842633
     0.16932190     0.24679809     0.24679809    -0.16431574
     0.17174079     0.23894275     0.23894275    -0.17002373
     0.17415967     0.23082360     0.23082360    -0.17554400
     0.17657856     0.22244960     0.22244960    -0.18087046
     0.17899744     0.21383001     0.21383001    -0.18599722
     0.18141632     0.20497433     0.20497433    -0.19091863
     0.18383521     0.19589235     0.19589235    -0.19562926
     0.18625409     0.18659409     0.18659409    -0.20012389
     0.18867298     0.17708982     0.17708982    -0.20439758
     0.19109186     0.16739002     0.16739002    -0.20844560
     0.19351075     0.15750542     0.15750542    -0.21226348
     0.19592963     0.14744692     0.14744692    -0.21584700
     0.19834851     0.13722563     0.13722563    -0.21919222
     0.20076740     0.12685283     0.12685283    -0.22229543
     0.20318628     0.11633998     0.11633998    -0.22515321
     0.20560517     0.10569868     0.10569868    -0.22776241
     0.20802405     0.09494068     0.09494068    -0.23012015
     0.21044294     0.08407787     0.08407787    -0.23222381
     0.21286182     0.07312222     0.07312222    -0.23407108
     0.21528071     0.06208584     0.06208584    -0.23565993
     0.21769959     0.05098092     0.05098092    -0.23698859
     0.22011847     0.03981970     0.03981970    -0.23805559
     0.22253736     0.02861453     0.02861453    -0.23885977
     0.22495624     0.01737776     0.01737776    -0.23940023
     0.22737513     0.00612181     0.00612181    -0.23967638
     0.22979401    -0.00514091    -0.00514091    -0.23968790
     0.23221290    -0.01639794    -0.01639794    -0.23943480
     0.23463178    -0.02763687    -0.02763687    -0.23891734
     0.23705066    -0.03884529    -0.03884529    -0.23813610
     0.23946955    -0.05001083    -0.05001083    -0.23709195
     0.24188843    -0.06112114    -0.06112114    -0.23578602
     0.24430732    -0.07216398    -0.07216398    -0.23421978
     0.24672620    -0.08312714    -0.08312714    -0.23239493
     0.24914509    -0.09399852    -0.09399852    -0.23031351
     0.25156397    -0.10476612    -0.10476612    -0.22797781
     0.25398285    -0.11541805    -0.11541805    -0.22539040
     0.25640174    -0.12594256    -0.12594256    -0.22255415
     0.25882062    -0.13632801    -0.13632801    -0.21947218
     0.26123951    -0.14656295    -0.14656295    -0.21614790
     0.26365839    -0.15663607    -0.15663607    -0.21258498
     0.26607728    -0.16653626    -0.16653626    -0.20878735
     0.26849616    -0.17625258    -0.17625258    -0.20475920
     0.27091504    -0.18577430    -0.18577430    -0.20050499
     0.27333393    -0.19509092    -0.19509092    -0.19602941
     0.27575281    -0.20419214    -0.20419214    -0.19133739
     0.27817170    -0.21306792    -0.21306792    -0.18643413
     0.28059058    -0.22170846    -0.22170846    -0.18132502
     0.28300947    -0.23010422    -0.23010422    -0.17601573
     0.28542835    -0.23824592    -0.23824592    -0.17051210
     0.28784723    -0.24612459    -0.24612459    -0.16482021
     0.29026612    -0.25373152    -0.25373152    -0.15894635
     0.29268500    -0.26105831    -0.26105831    -0.15289701
     0.29510389    -0.26809688    -0.26809688    -0.14667885
     0.29752277    -0.27483944    -0.27483944    -0.14029875
     0.29994166    -0.28127857    -0.28127857    -0.13376375
     0.30236054    -0.28740715    -0.28740715    -0.12708107
     0.30477943    -0.29321841    -0.29321841    -0.12025808
     0.30719831    -0.29870593    -0.29870593    -0.11330232
     0.30961719    -0.30386367    -0.30386367    -0.10622146
     0.31203608    -0.30868591    -0.30868591    -0.09902333
     0.31445496    -0.31316735    -0.31316735    -0.09171587
     0.31687385    -0.31730303    -0.31730303    -0.08430715
     0.31929273    -0.32108838    -0.32108838    -0.07680535
     0.32171162    -0.32451924    -0.32451924    -0.06921875
     0.32413050    -0.32759180    -0.32759180    -0.06155573
     0.32654938    -0.33030267    -0.33030267    -0.05382475
     0.32896827    -0.33264887    -0.33264887    -0.04603434
     0.33138715    -0.33462780    -0.33462780    -0.03819310
     0.33380604    -0.33623728    -0.33623728    -0.03030970
     0.33622492    -0.33747553    -0.33747553    -0.02239283
     0.33864381    -0.33834119    -0.33834119    -0.01445124
     0.34106269    -0.33883329    -0.33883329    -0.00649370
     0.34348157    -0.33895130    -0.33895130     0.00147102
     0.34590046    -0.33869508    -0.33869508     0.00943411
     0.34831934    -0.33806492    -0.33806492     0.01738678
     0.35073823    -0.33706152    -0.33706152     0.02532026
     0.35315711    -0.33568597    -0.33568597     0.03322578
     0.35557600    -0.33393981    -0.33393981     0.04109462
     0.35799488    -0.33182495    -0.33182495     0.04891809
     0.36041376    -0.32934373    -0.32934373     0.05668755
     0.36283265    -0.32649890    -0.32649890     0.06439442
     0.36525153    -0.32329359    -0.32329359     0.07203020
     0.36767042    -0.31973134    -0.31973134     0.07958645
     0.37008930    -0.31581609    -0.31581609     0.08705483
     0.37250819    -0.31155215    -0.31155215     0.09442710
     0.37492707    -0.30694424    -0.30694424     0.10169511
     0.37734595    -0.30199744    -0.30199744     0.10885085
     0.37976484    -0.29671722    -0.29671722     0.11588640
     0.38218372    -0.29110939    -0.29110939     0.12279401
     0.38460261    -0.28518017    -0.28518017     0.12956605
     0.38702149    -0.27893609    -0.27893609     0.13619503
     0.38944038    -0.27238404    -0.27238404     0.14267365
     0.39185926    -0.26553126    -0.26553126     0.14899475
     0.39427815    -0.25838531    -0.25838531     0.15515135
     0.39669703    -0.25095410    -0.25095410     0.16113664
     0.39911591    -0.24324581    -0.24324581     0.16694404
     0.40153480    -0.23526896    -0.23526896     0.17256711
     0.40395368    -0.22703236    -0.22703236     0.17799966
     0.40637257    -0.21854509    -0.21854509     0.18323569
     0.40879145    -0.20981654    -0.20981654     0.18826941
     0.41121034    -0.20085634    -0.20085634     0.19309526
     0.41362922    -0.19167438    -0.19167438     0.19770793
     0.41604810    -0.18228080    -0.18228080     0.20210232
     0.41846699    -0.17268596    -0.17268596     0.20627357
     0.42088587    -0.16290047    -0.16290047     0.21021708
     0.42330476    -0.15293513    -0.15293513     0.21392849
     0.42572364    -0.14280094    -0.14280094     0.21740372
     0.42814253    -0.13250908    -0.13250908     0.22063891
     0.43056141    -0.12207092    -0.12207092     0.22363051
     0.43298029    -0.11149799    -0.11149799     0.22637520
     0.43539918    -0.10080196    -0.10080196     0.22886996
     0.43781806    -0.08999464    -0.08999464     0.23111203
     0.44023695    -0.07908795    -0.07908795     0.23309893
     0.44265583    -0.06809395    -0.06809395     0.23482848
     0.44507472    -0.05702477    -0.05702477     0.23629876
     0.44749360    -0.04589263    -0.04589263     0.23750816
     0.44991248    -0.03470982    -0.03470982     0.23845532
     0.45233137    -0.02348868    -0.02348868     0.23913922
     0.45475025    -0.01224162    -0.01224162     0.23955909
     0.45716914    -0.00098104    -0.00098104     0.23971447
     0.45958802     0.01028063     0.01028063     0.23960519
     0.46200691     0.02153094     0.02153094     0.23923137
     0.46442579     0.03275748     0.03275748     0.23859342
     0.46684468     0.04394786     0.04394786     0.23769205
     0.46926356     0.05508972     0.05508972     0.23652825
     0.47168244     0.06617075     0.06617075     0.23510331
     0.47410133     0.07717872     0.07717872     0.23341879
     0.47652021     0.08810149     0.08810149     0.23147657
     0.47893910     0.09892698     0.09892698     0.22927878
     0.48135798     0.10964325     0.10964325     0.22682785
     0.48377687     0.12023847     0.12023847     0.22412648
     0.48619575     0.13070094     0.13070094     0.22117767
     0.48861463     0.14101910     0.14101910     0.21798466
     0.49103352     0.15118157     0.15118157     0.21455098
     0.49345240     0.16117712     0.16117712     0.21088042
     0.49587129     0.17099473     0.17099473     0.20697704
     0.49829017     0.18062354     0.18062354     0.20284514
     0.50070906     0.19005294     0.19005294     0.19848928
     0.50312794     0.19927250     0.19927250     0.19391428
     0.50554682     0.20827205     0.20827205     0.18912518
     0.50796571     0.21704165     0.21704165     0.18412728
     0.51038459     0.22557163     0.22557163     0.17892609
     0.51280348     0.23385256     0.23385256     0.17352735
     0.51522236     0.24187530     0.24187530     0.16793702
     0.51764125     0.24963099     0.24963099     0.16216128
     0.52006013     0.25711108     0.25711108     0.15620650
     0.52247901     0.26430729     0.26430729     0.15007926
     0.52489790     0.27121169     0.27121169     0.14378633
     0.52731678     0.27781666     0.27781666     0.13733464
     0.52973567     0.28411490     0.28411490     0.13073133
     0.53215455     0.29009945     0.29009945     0.12398368
     0.53457344     0.29576372     0.29576372     0.11709914
     0.53699232     0.30110144     0.30110144     0.11008532
     0.53941120     0.30610673     0.30610673     0.10294995
     0.54183009     0.31077405     0.31077405     0.09570093
     0.54424897     0.31509825     0.31509825     0.08834624
     0.54666786     0.31907457     0.31907457     0.08089401
     0.54908674     0.32269861     0.32269861     0.07335247
     0.55150563     0.32596636     0.32596636     0.06572994
     0.55392451     0.32887423     0.32887423     0.05803484
     0.55634340     0.33141900     0.33141900     0.05027567
     0.55876228     0.33359785     0.33359785     0.04246099
     0.56118116     0.33540840     0.33540840     0.03459943
     0.56360005     0.33684863     0.33684863     0.02669967
     0.56601893     0.33791695     0.33791695     0.01877044
     0.56843782     0.33861219     0.33861219     0.01082047
     0.57085670     0.33893358     0.33893358     0.00285857
     0.57327559     0.33888077     0.33888077    -0.00510650
     0.57569447     0.33845380     0.33845380    -0.01306592
     0.57811335     0.33765317     0.33765317    -0.02101093
     0.58053224     0.33647973     0.33647973    -0.02893273
     0.58295112     0.33493481     0.33493481    -0.03682259
     0.58537001     0.33302009     0.33302009    -0.04467179
     0.58778889     0.33073769     0.33073769    -0.05247168
     0.59020778     0.32809014     0.32809014    -0.06021363
     0.59262666     0.32508035     0.32508035    -0.06788910
     0.59504554     0.32171165     0.32171165    -0.07548962
     0.59746443     0.31798776     0.31798776    -0.08300679
     0.59988331     0.31391280     0.31391280    -0.09043232
     0.60230220     0.30949124     0.30949124    -0.09775800
     0.60472108     0.30472799     0.30472799    -0.10497575
     0.60713997     0.29962830     0.29962830    -0.11207760
     0.60955885     0.29419780     0.29419780    -0.11905571
     0.61197773     0.28844249     0.28844249    -0.12590238
     0.61439662     0.28236871     0.28236871    -0.13261004
     0.61681550     0.27598318     0.27598318    -0.13917129
     0.61923439     0.26929295     0.26929295    -0.14557888
     0.62165327     0.26230539     0.26230539    -0.15182575
     0.62407216     0.25502824     0.25502824    -0.15790498
     0.62649104     0.24746952     0.24746952    -0.16380989
     0.62890992     0.23963757     0.23963757    -0.16953393
     0.63132881     0.23154105     0.23154105    -0.17507080
     0.63374769     0.22318888     0.22318888    -0.18041437
     0.63616658     0.21459031     0.21459031    -0.18555876
     0.63858546     0.20575481     0.20575481    -0.19049828
     0.64100435     0.19669214     0.19669214    -0.19522747
     0.64342323     0.18741232     0.18741232    -0.19974112
     0.64584212     0.17792557     0.17792557    -0.20403425
     0.64826100     0.16824239     0.16824239    -0.20810210
     0.65067988     0.15837345     0.15837345    -0.21194019
     0.65309877     0.14832966     0.14832966    -0.21554429
     0.65551765     0.13812210     0.13812210    -0.21891042
     0.65793654     0.12776205     0.12776205    -0.22203485
     0.66035542     0.11726093     0.11726093    -0.22491414
     0.66277431     0.10663036     0.10663036    -0.22754511
     0.66519319     0.09588205     0.09588205    -0.22992485
     0.66761207     0.08502789     0.08502789    -0.23205074
     0.67003096     0.07407985     0.07407985    -0.23392043
     0.67244984     0.06305002     0.06305002    -0.23553186
     0.67486873     0.05195058     0.05195058    -0.23688324
     0.67728761     0.04079378     0.04079378    -0.23797309
     0.67970650     0.02959194     0.02959194    -0.23880020
     0.68212538     0.01835743     0.01835743    -0.23936366
     0.68454426     0.00710266     0.00710266    -0.23966284
     0.68696315    -0.00415996    -0.00415996    -0.23969742
     0.68938203    -0.01541799    -0.01541799    -0.23946736
     0.69180092    -0.02665899    -0.02665899    -0.23897291
     0.69421980    -0.03787056    -0.03787056    -0.23821462
     0.69663869    -0.04904032    -0.04904032    -0.23719332
     0.69905757    -0.06015593    -0.06015593    -0.23591014
     0.70147645    -0.07120513    -0.07120513    -0.23436650
     0.70389534    -0.08217571    -0.08217571    -0.23256411
     0.70631422    -0.09305557    -0.09305557    -0.23050495
     0.70873311    -0.10383268    -0.10383268    -0.22819130
     0.71115199    -0.11449516    -0.11449516    -0.22562571
     0.71357088    -0.12503123    -0.12503123    -0.22281101
     0.71598976    -0.13542925    -0.13542925    -0.21975031
     0.71840864    -0.14567775    -0.14567775    -0.21644699
     0.72082753    -0.15576541    -0.15576541    -0.21290470
     0.72324641    -0.16568110    -0.16568110    -0.20912735
     0.72566530    -0.17541386    -0.17541386    -0.20511911
     0.72808418    -0.18495296    -0.18495296    -0.20088441
     0.73050307    -0.19428785    -0.19428785    -0.19642791
     0.73292195    -0.20340824    -0.20340824    -0.19175454
     0.73534084    -0.21230405    -0.21230405    -0.18686947
     0.73775972    -0.22096546    -0.22096546    -0.18177807
     0.74017860    -0.22938291    -0.22938291    -0.17648598
     0.74259749    -0.23754710    -0.23754710    -0.17099904
     0.74501637    -0.24544903    -0.24544903    -0.16532331
     0.74743526    -0.25307997    -0.25307997    -0.15946504
     0.74985414    -0.26043149    -0.26043149    -0.15343072
     0.75227303    -0.26749547    -0.26749547    -0.14722700
     0.75469191    -0.27426412    -0.27426412    -0.14086073
     0.75711079    -0.28072996    -0.28072996    -0.13433893
     0.75952968    -0.28688586    -0.28688586    -0.12766882
     0.76194856    -0.29272502    -0.29272502    -0.12085776
     0.76436745    -0.29824099    -0.29824099    -0.11391326
     0.76678633    -0.30342768    -0.30342768    -0.10684299
     0.76920522    -0.30827937    -0.30827937    -0.09965476
     0.77162410    -0.31279069    -0.31279069    -0.09235650
     0.77404298    -0.31695667    -0.31695667    -0.08495628
     0.77646187    -0.32077271    -0.32077271    -0.07746226
     0.77888075    -0.32423460    -0.32423460    -0.06988271
     0.78129964    -0.32733851    -0.32733851    -0.06222601
     0.78371852    -0.33008101    -0.33008101    -0.05450061
     0.78613741    -0.33245908    -0.33245908    -0.04671503
