#             time (fs)      |   total net charge (e)  |   charge (atom_1) (e)   |   charge (atom_2) (e)   |        ...        |   charge (atom_N) (e)   |
          0.000000000000000       -0.000000000000000       -0.000000000000000        0.000000000000000
          0.120944216325250        0.000000000267386       -0.020243744551091        0.020243744818477
          0.241888432650500       -0.000000000198400        0.042583709725282       -0.042583709923682
          0.362832648975750       -0.000000000755917       -0.026544579354033        0.026544578598115
          0.483776865301000       -0.000000000935942        0.001469210172774       -0.001469211108716
          0.604721081626250       -0.000000001178158       -0.012847255372251        0.012847254194093
          0.725665297951500       -0.000000002027924        0.039536154120729       -0.039536156148652
          0.846609514276750       -0.000000002744726       -0.032472671485849        0.032472668741124
          0.967553730602000       -0.000000003156333        0.003894629470786       -0.003894632627119
          1.088497946927250       -0.000000003504270       -0.004887024398470        0.004887020894201
          1.209442163252500       -0.000000004044637        0.032353013095307       -0.032353017139944
          1.330386379577750       -0.000000004328797       -0.034781300550268        0.034781296221471
          1.451330595903000       -0.000000004383201        0.006037862374947       -0.006037866758148
          1.572274812228250       -0.000000004279187        0.003481796632670       -0.003481800911856
          1.693219028553500       -0.000000003762359        0.021407722159437       -0.021407725921796
          1.814163244878750       -0.000000002893412       -0.033048176550489        0.033048173657077
          1.935107461204000       -0.000000002056620        0.007739923956814       -0.007739926013433
          2.056051677529250       -0.000000000979394        0.010979621631976       -0.010979622611369
          2.176995893854500        0.000000001043901        0.008516045992189       -0.008516044948288
          2.297940110179750        0.000000003653170       -0.028264969395388        0.028264973048558
          2.418884326505000        0.000000005783053        0.009782527082172       -0.009782521299118
          2.539828542830250        0.000000008147664        0.015691970178225       -0.015691962030561
          2.660772759155500        0.000000011664692       -0.003825070224597        0.003825081889290
          2.781716975480750        0.000000016133762       -0.021939217766008        0.021939233899770
          2.902661191806000        0.000000019710222        0.012876480918519       -0.012876461208298
          3.023605408131250        0.000000023326271        0.016185435932007       -0.016185412605736
          3.144549624456500        0.000000027922387       -0.013511217260702        0.013511245183089
          3.265493840781750        0.000000033744775       -0.015220902381483        0.015220936126259
          3.386438057107000        0.000000038541120        0.016966895498375       -0.016966856957255
          3.507382273432250        0.000000042964968        0.012103402023128       -0.012103359058160
          3.628326489757500        0.000000047939041       -0.019242118468933        0.019242166407974
          3.749270706082750        0.000000054070627       -0.008804491542709        0.008804545613335
          3.870214922408000        0.000000059381689        0.021352535581623       -0.021352476199933
          3.991159138733250        0.000000063846213        0.004049896333558       -0.004049832487345
          4.112103355058500        0.000000068324333       -0.020411379818571        0.020411448142904
          4.233047571383750        0.000000073471635       -0.003203217515880        0.003203290987516
          4.353991787709000        0.000000078111994        0.025086484220698       -0.025086406108704
          4.474936004034250        0.000000081658021       -0.006665151203353        0.006665232861374
          4.595880220359500        0.000000084732991       -0.017069352494435        0.017069437227426
          4.716824436684750        0.000000087749080        0.001183117462447       -0.001183029713367
          4.837768653010000        0.000000090295930        0.027204086463195       -0.027203996167264
          4.958712869335250        0.000000091856181       -0.018179026338877        0.018179118195058
          5.079657085660500        0.000000092698362       -0.010019972663973        0.010020065362335
          5.200601301985750        0.000000092875816        0.004175121254504       -0.004175028378689
          5.321545518311000        0.000000092191974        0.026891701124552       -0.026891608932578
          5.442489734636251        0.000000090758445       -0.028380463868121        0.028380554626566
          5.563433950961501        0.000000088700538       -0.000691385472773        0.000691474173311
          5.684378167286750        0.000000085787068        0.005766902190703       -0.005766816403635
          5.805322383612000        0.000000081505187        0.023800668104462       -0.023800586599275
          5.926266599937250        0.000000076500941       -0.035489282372685        0.035489358873626
          6.047210816262500        0.000000071231496        0.009320965759218       -0.009320894527722
          6.168155032587750        0.000000065323975        0.005921001501184       -0.005920936177209
          6.289099248913001        0.000000057920184        0.018313295646604       -0.018313237726420
          6.410043465238251        0.000000049560373       -0.038551714926511        0.038551764486884
          6.530987681563500        0.000000041395383        0.018660804843524       -0.018660763448142
          6.651931897888750        0.000000033006097        0.004547979451946       -0.004547946445850
          6.772876114214000        0.000000023540468        0.011385748083414       -0.011385724542947
          6.893820330539250        0.000000012897521       -0.037426518237881        0.037426531135402
          7.014764546864500        0.000000002875983        0.026220995422615       -0.026220992546632
          7.135708763189751       -0.000000006892231        0.001812947125475       -0.001812954017705
          7.256652979515001       -0.000000017021381        0.003985206744746       -0.003985223766127
          7.377597195840250       -0.000000028232314       -0.032340385887641        0.032340357655327
          7.498541412165500       -0.000000038518185        0.030906304424533       -0.030906342942718
          7.619485628490750       -0.000000048017638       -0.001552619725943        0.001552571708305
          7.740429844816000       -0.000000057204830       -0.003392352498922        0.003392295294092
          7.861374061141250       -0.000000066960540       -0.023534018067260        0.023533951106720
          7.982318277466501       -0.000000075635339        0.031618648505028       -0.031618724140367
          8.103262493791750       -0.000000083026447       -0.004395126821952        0.004395043795504
          8.224206710117000       -0.000000089622399       -0.010625223694511        0.010625134072112
          8.345150926442249       -0.000000095987751       -0.011452144637383        0.011452048649632
          8.466095142767500       -0.000000101171843        0.027755882284809       -0.027755983456652
          8.587039359092751       -0.000000104847865       -0.005849516702102        0.005849411854237
          8.707983575418000       -0.000000107432641       -0.017298133071033        0.017298025638392
          8.828927791743251       -0.000000108991460        0.002656127253588       -0.002656236245048
          8.949872008068500       -0.000000109184637        0.019881367177383       -0.019881476362020
          9.070816224393750       -0.000000108071417       -0.006027890437076        0.006027782365659
          9.191760440718999       -0.000000105758070       -0.022222977534492        0.022222871776422
          9.312704657044250       -0.000000101933177        0.016560479470571       -0.016560581403747
          9.433648873369501       -0.000000096487021        0.009690674161295       -0.009690770648316
          9.554593089694750       -0.000000090240158       -0.005798507686340        0.005798417446183
          9.675537306020001       -0.000000082929670       -0.023951717041489        0.023951634111819
          9.796481522345250       -0.000000074059689        0.027866407253418       -0.027866481313107
          9.917425738670500       -0.000000063462266       -0.000964487205886        0.000964423743620
         10.038369954995749       -0.000000052600818       -0.005757951024020        0.005757898423202
         10.159314171321000       -0.000000041133516       -0.021853067286114        0.021853026152598
         10.280258387646251       -0.000000028397183        0.035074655861293       -0.035074684258476
         10.401202603971500       -0.000000014183981       -0.010949203297711        0.010949189113731
         10.522146820296751       -0.000000000094821       -0.005624401875052        0.005624401780231
         10.643091036622000        0.000000013823485       -0.016514168242189        0.016514182065674
         10.764035252947250        0.000000028508736        0.037780169498650       -0.037780140989914
         10.884979469272501        0.000000044080548       -0.019729649888670        0.019729693969218
         11.005923685597750        0.000000059292756       -0.004664525056971        0.004664584349726
         11.126867901923001        0.000000073436243       -0.009197024292199        0.009197097728442
         11.247812118248250        0.000000087639799        0.036128758462973       -0.036128670823174
         11.368756334573501        0.000000101976387       -0.026734253153802        0.026734355130188
         11.489700550898750        0.000000115754123       -0.002462789990741        0.002462905744863
         11.610644767224001        0.000000127801119       -0.001157992540021        0.001158120341140
         11.731588983549251        0.000000139042755        0.030409236746942       -0.030409097704187
         11.852533199874500        0.000000149653180       -0.031091781101962        0.031091930755142
         11.973477416199751        0.000000159390853        0.000779374643825       -0.000779215252973
         12.094421632525000        0.000000167205188        0.006558365041030       -0.006558197835842
         12.215365848850251        0.000000173486678        0.021179352835109       -0.021179179348430
         12.336310065175500        0.000000178471671       -0.031992680774009        0.031992859245679
         12.457254281500751        0.000000182096696        0.004524651734165       -0.004524469637468
         12.578198497826001        0.000000183924862        0.012939177895326       -0.012938993970464
         12.699142714151250        0.000000184029067        0.009628157190840       -0.009627973161773
         12.820086930476501        0.000000182447159       -0.029265254088255        0.029265436535413
         12.941031146801750        0.000000179015312        0.008341885296251       -0.008341706280939
         13.061975363127001        0.000000173850929        0.016883687828698       -0.016883513977769
         13.182919579452250        0.000000167397993       -0.002357004543904        0.002357171941896
         13.303863795777501        0.000000159351438       -0.023609299321211        0.023609458672650
         13.424808012102751        0.000000149296861        0.012061798703928       -0.012061649407067
         13.545752228428000        0.000000137372252        0.017431829615985       -0.017431692243733
         13.666696444753251        0.000000124888389       -0.012630769715706        0.012630894604095
         13.787640661078500        0.000000111440545       -0.016320772527048        0.016320883967593
         13.908584877403751        0.000000096352759        0.015621014283123       -0.015620917930364
         14.029529093729000        0.000000079339246        0.014142947826331       -0.014142868487085
         14.150473310054251        0.000000062384261       -0.019396097345454        0.019396159729716
         14.271417526379501        0.000000045471367       -0.008852036902852        0.008852082374218
         14.392361742704750        0.000000027693157        0.018933198380969       -0.018933170687812
         14.513305959030001        0.000000008373527        0.007220540795818       -0.007220532422290
         14.634250175355250       -0.000000010506340       -0.021528281127104        0.021528270620765
         14.755194391680501       -0.000000028255895       -0.002545576894599        0.002545548638704
         14.876138608005750       -0.000000045954792        0.021933417660450       -0.021933463615242
         14.997082824331001       -0.000000064325740       -0.002640561615952        0.002640497290213
         15.118027040656251       -0.000000081950788       -0.018632224763756        0.018632142812968
         15.238971256981500       -0.000000097602085        0.001560263864361       -0.001560361466446
         15.359915473306751       -0.000000112345930        0.024529037736161       -0.024529150082091
         15.480859689632000       -0.000000126680662       -0.014310563682975        0.014310437002313
         15.601803905957251       -0.000000139830328       -0.011171855387631        0.011171715557302
         15.722748122282500       -0.000000150632921        0.003092497879862       -0.003092648512783
         15.843692338607751       -0.000000159864743        0.026269530764465       -0.026269690629209
         15.964636554933001       -0.000000167745855       -0.026046202289088        0.026046034543233
         16.085580771258250       -0.000000173875128       -0.000663383479784        0.000663209604656
         16.206524987583499       -0.000000177741276        0.002635427108548       -0.002635604849824
         16.327469203908752       -0.000000179690411        0.026156335730162       -0.026156515420572
         16.448413420234001       -0.000000179706110       -0.035587773733866        0.035587594027756
         16.569357636559250       -0.000000177564329        0.010636162143431       -0.010636339707760
         16.690301852884499       -0.000000173497749        0.001321140363863       -0.001321313861612
         16.811246069209751       -0.000000167564731        0.023224336727829       -0.023224504292560
         16.932190285535000       -0.000000159491201       -0.041017856264635        0.041017696773434
         17.053134501860249       -0.000000149347277        0.020773065684365       -0.020773215031642
         17.174078718185502       -0.000000137716418       -0.000228309413758        0.000228171697340
         17.295022934510751       -0.000000124677959        0.017570179676789       -0.017570304354748
         17.415967150836000       -0.000000109589320       -0.041766378349433        0.041766268760113
         17.536911367161249       -0.000000093041643        0.028962056589628       -0.028962149631271
         17.657855583486501       -0.000000075555920       -0.002479239528175        0.002479163972255
         17.778799799811750       -0.000000057470785        0.010638589795686       -0.010638647266471
         17.899744016136999       -0.000000037733073       -0.038659339979976        0.038659302246903
         18.020688232462252       -0.000000017368700        0.035348698539097       -0.035348715907797
         18.141632448787501        0.000000003229898       -0.006409030407686        0.006409033637584
         18.262576665112750        0.000000023441096        0.004422472016240       -0.004422448575144
         18.383520881437999        0.000000044498769       -0.033065927924845        0.033065972423614
         18.504465097763251        0.000000065443801        0.040106364096895       -0.040106298653094
         18.625409314088500        0.000000085840855       -0.012487515247757        0.012487601088612
         18.746353530413749        0.000000104951225        0.000452277426009       -0.000452172474784
         18.867297746739002        0.000000123729779       -0.026111950946311        0.026112074676090
         18.988241963064251        0.000000141788085        0.042868840736735       -0.042868698948651
         19.109186179389500        0.000000158606470       -0.020145341472970        0.020145500079441
         19.230130395714749        0.000000173552948       -0.000688479458976        0.000688653011924
         19.351074612040001        0.000000186975893       -0.018471099002664        0.018471285978557
         19.472018828365250        0.000000199055316        0.042838215541350       -0.042838016486034
         19.592963044690499        0.000000209395807       -0.027940237380774        0.027940446776581
         19.713907261015752        0.000000217627336        0.000731071626997       -0.000730853999661
         19.834851477341001        0.000000223650402       -0.010612781834289        0.010613005484691
         19.955795693666250        0.000000227716522        0.039349572761298       -0.039349345044776
         20.076739909991499        0.000000229719835       -0.034207258950603        0.034207488670438
         20.197684126316751        0.000000229568277        0.004049669080151       -0.004049439511873
         20.318628342642000        0.000000227272702       -0.003215007740043        0.003215235012745
         20.439572558967249        0.000000222765191        0.032516988541353       -0.032516765776162
         20.560516775292502        0.000000216050890       -0.037822054989930        0.037822271040820
         20.681460991617751        0.000000207197367        0.008719580563194       -0.008719373365827
         20.802405207943000        0.000000196746275        0.002611712961183       -0.002611516214909
         20.923349424268253        0.000000184529462        0.023512409482818       -0.023512224953356
         21.044293640593501        0.000000170262134       -0.038607697480337        0.038607867742471
         21.165237856918750        0.000000154028001        0.014491611282067       -0.014491457254066
         21.286182073243999        0.000000136767986        0.005552673612666       -0.005552536844680
         21.407126289569252        0.000000118823069        0.014229220089290       -0.014229101266221
         21.528070505894501        0.000000099391992       -0.037163527018183        0.037163626410176
         21.649014722219750        0.000000078515640        0.021206207666054       -0.021206129150414
         21.769958938545003        0.000000057055383        0.004633990976629       -0.004633933921245
         21.890903154870252        0.000000036181163        0.006566919672700       -0.006566883491537
         22.011847371195501        0.000000014739965       -0.034353968396958        0.034353983136924
         22.132791587520749       -0.000000007275451        0.028463308736536       -0.028463316011987
         22.253735803846002       -0.000000029364656       -0.000299339989946        0.000299310625290
         22.374680020171251       -0.000000049861042        0.001770196676053       -0.001770246537095
         22.495624236496500       -0.000000069862259       -0.030797343542314        0.030797273680056
         22.616568452821753       -0.000000089450929        0.035386694701266       -0.035386784152196
         22.737512669147002       -0.000000108350115       -0.008355753869961        0.008355645519846
         22.858456885472251       -0.000000125095186        0.000027774642242       -0.000027899737428
         22.979401101797500       -0.000000140415866       -0.026508647304936        0.026508506889070
         23.100345318122752       -0.000000154477426        0.040536557065062       -0.040536711542488
