#           time (fs)    |     mu_x (e.angstrom)   |     mu_y (e.angstrom)   |     mu_z (e.angstrom)   |
        0.000000000000000       -0.000000000000000       -0.000000000000000        0.000000000000000
        0.002418884326505        0.000000000883059        0.000000002507573        0.000051808562189
        0.004837768653010        0.000000003531986        0.000000010029652        0.000103613462580
        0.007256652979515        0.000000007904018        0.000000022444704        0.000154584917728
        0.009675537306020        0.000000015552803        0.000000044164731        0.000228141010393
        0.012094421632525        0.000000025566606        0.000000072600474        0.000300034500012
        0.014513305959030        0.000000042611071        0.000000121001093        0.000416728578247
        0.016932190285535        0.000000063336174        0.000000179853252        0.000530944809529
        0.019351074612040        0.000000096988149        0.000000275413557        0.000711439643393
        0.021769958938545        0.000000136287497        0.000000387010105        0.000888661502960
        0.024188843265050        0.000000196391535        0.000000557685025        0.001152548542142
        0.026607727591555        0.000000264727215        0.000000751734265        0.001412393531963
        0.029026611918060        0.000000363510023        0.000001032242644        0.001777863104448
        0.031445496244565        0.000000473682267        0.000001345091504        0.002138553163494
        0.033864380571070        0.000000625440394        0.000001776028379        0.002622087448307
        0.036283264897575        0.000000792265582        0.000002249746878        0.003100141447655
        0.038702149224080        0.000001012998267        0.000002876539269        0.003716235139020
        0.041121033550585        0.000001252932997        0.000003557850879        0.004326188979528
        0.043539917877090        0.000001559928333        0.000004429579803        0.005087102121632
        0.045958802203595        0.000001890647863        0.000005368660827        0.005841260926899
        0.048377686530100        0.000002302031477        0.000006536775217        0.006756807888950
        0.050796570856605        0.000002741971879        0.000007785949215        0.007665034277890
        0.053215455183110        0.000003276228217        0.000009302899884        0.008742412265579
        0.055634339509615        0.000003844102427        0.000010915255577        0.009811954115793
        0.058053223836120        0.000004519579370        0.000012833079237        0.011055613985751
        0.060472108162625        0.000005233877951        0.000014861042181        0.012290974469218
        0.062890992489130        0.000006068285911        0.000017229926806        0.013702535937039
        0.065309876815635        0.000006946773713        0.000019723816302        0.015105387933073
        0.067728761142140        0.000007956690503        0.000022590679774        0.016683600553252
        0.070147645468645        0.000009015910540        0.000025597283107        0.018252746830471
        0.072566529795150        0.000010216303234        0.000029004397050        0.019993497389520
        0.074985414121655        0.000011471098982        0.000032565593022        0.021724877210330
        0.077404298448160        0.000012874873634        0.000036549283052        0.023621243424204
        0.079823182774665        0.000014337940550        0.000040700746071        0.025507985473974
        0.082242067101170        0.000015955530052        0.000045290198369        0.027550335130327
        0.084660951427675        0.000017637006534        0.000050060212911        0.029582855921623
        0.087079835754180        0.000019476006061        0.000055276415047        0.031758989868931
        0.089498720080685        0.000021383113205        0.000060684828322        0.033925136031642
        0.091917604407190        0.000023447971716        0.000066539669701        0.036220472703420
        0.094336488733695        0.000025584710195        0.000072597007690        0.038505704857035
        0.096755373060200        0.000027876485223        0.000079092561893        0.040903503343628
        0.099174257386705        0.000030243396419        0.000085799330783        0.043291118571314
        0.101593141713210        0.000032759578079        0.000092927338465        0.045772736622494
        0.104012026039715        0.000035353575236        0.000100273529837        0.048244125937238
        0.106430910366220        0.000038087983916        0.000108015096835        0.050789308712520
        0.108849794692725        0.000040902257657        0.000115979910915        0.053324245338791
        0.111268679019230        0.000043845018342        0.000124305431888        0.055911440223265
        0.113687563345735        0.000046869019369        0.000132857228751        0.058488394018416
        0.116106447672240        0.000050006614006        0.000141726542039        0.061095086401581
        0.118525331998745        0.000053226114249        0.000150823026052        0.063691559320691
        0.120944216325250        0.000056541511983        0.000160185800716        0.066294623900311
        0.123363100651755        0.000059938743942        0.000169774438693        0.068887501072435
        0.125781984978260        0.000063411607541        0.000179570789851        0.071463563000213
        0.128200869304765        0.000066965480019        0.000189589458562        0.074029473738351
        0.130619753631270        0.000070572445324        0.000199750782374        0.076555273772979
        0.133038637957775        0.000074258832321        0.000210128636253        0.079070956688216
        0.135457522284280        0.000077973856164        0.000220578651218        0.081523714466106
        0.137876406610785        0.000081765954291        0.000231237196448        0.083966380800137
        0.140295290937290        0.000085560725040        0.000241893173291        0.086324150375054
        0.142714175263795        0.000089429473560        0.000252747530017        0.088671839705068
        0.145133059590300        0.000093273877263        0.000263521688274        0.090913851643758
        0.147551943916805        0.000097188433666        0.000274482018600        0.093145774247931
        0.149970828243310        0.000101051067729        0.000285283064320        0.095252758796560
        0.152389712569815        0.000104979330718        0.000296256140010        0.097349619194373
        0.154808596896320        0.000108828056121        0.000306990915731        0.099304105345893
        0.157227481222825        0.000112737226966        0.000317881796343        0.101248401840727
        0.159646365549330        0.000116539749275        0.000328457011775        0.103034987530275
        0.162065249875835        0.000120396921707        0.000339170801227        0.104811282976493
        0.164484134202340        0.000124121390485        0.000349494810954        0.106416872103719
        0.166903018528845        0.000127894158667        0.000359938458480        0.108012031589916
        0.169321902855350        0.000131509774443        0.000369923051516        0.109426034105568
        0.171740787181855        0.000135166848072        0.000380007161473        0.110829425781752
        0.174159671508360        0.000138644465684        0.000389569326661        0.112043917672020
        0.176578555834865        0.000142156280935        0.000399209940912        0.113247573542383
        0.178997440161370        0.000145468997909        0.000408273572073        0.114257414188640
        0.181416324487875        0.000148808312751        0.000417393888560        0.115256148333599
        0.183835208814380        0.000151932031384        0.000425891393813        0.116059053406990
        0.186254093140885        0.000155074493793        0.000434423385585        0.116850535778145
        0.188672977467390        0.000157988445753        0.000442297166580        0.117447104537202
        0.191091861793895        0.000160913123501        0.000450183066828        0.118031889176093
        0.193510746120400        0.000163600346125        0.000457386835529        0.118425585760241
        0.195929630446905        0.000166290207142        0.000464580456202        0.118807093015411
        0.198348514773410        0.000168737961112        0.000471080359488        0.119004182056779
        0.200767399099915        0.000171180293974        0.000477548213691        0.119188635102659
        0.203186283426420        0.000173380412747        0.000483323739202        0.119198072702027
        0.205605167752925        0.000175567177525        0.000489045940850        0.119194389386580
        0.208024052079430        0.000177516339819        0.000494090581304        0.119027671205718
        0.210442936405935        0.000179444440432        0.000499061499302        0.118847312960840
        0.212861820732440        0.000181144358102        0.000503383156717        0.118518281862507
        0.215280705058945        0.000182815828458        0.000507611805262        0.118175062091387
        0.217699589385450        0.000184273343389        0.000511232921224        0.117699678399715
        0.220118473711955        0.000185695440845        0.000514743072548        0.117209533398686
        0.222537358038460        0.000186922525937        0.000517700475674        0.116605611447158
        0.224956242364965        0.000188107727128        0.000520530486625        0.115986337516324
        0.227375126691470        0.000189121388024        0.000522874953652        0.115273252689124
        0.229794011017975        0.000190087283754        0.000525077302860        0.114544213627432
        0.232212895344480        0.000190909359760        0.000526872835246        0.113742584574378
        0.234631779670985        0.000191678447442        0.000528513373105        0.112924394232365
        0.237050663997490        0.000192335311927        0.000529836196537        0.112055745340666
        0.239469548323995        0.000192934686002        0.000530993115816        0.111169930310371
        0.241888432650500        0.000193456848554        0.000531930415528        0.110256339841358
        0.244307316977005        0.000193917791314        0.000532692955960        0.109324987691120
        0.246726201303510        0.000194339405943        0.000533341366098        0.108388727231419
        0.249145085630015        0.000194696883249        0.000533808271670        0.107434125937739
        0.251563969956520        0.000195055168948        0.000534272142087        0.106497296967448
        0.253982854283025        0.000195347237407        0.000534549894939        0.105541571351980
        0.256401738609530        0.000195681819363        0.000534939363554        0.104625744793883
        0.258820622936035        0.000195948953526        0.000535140223163        0.103690495837409
        0.261239507262540        0.000196301135187        0.000535569126393        0.102816360418832
        0.263658391589045        0.000196585485257        0.000535809007088        0.101922313293459
        0.266077275915550        0.000196997463192        0.000536392664641        0.101109338425374
        0.268496160242055        0.000197342055477        0.000536788888309        0.100276004960215
        0.270915044568560        0.000197856090542        0.000537641801836        0.099542123617144
        0.273333928895065        0.000198303984484        0.000538310765827        0.098787484692125
        0.275752813221570        0.000198961544126        0.000539544273409        0.098148801463569
        0.278171697548075        0.000199554960996        0.000540599076155        0.097489014512970
        0.280590581874580        0.000200395848552        0.000542319006317        0.096959543596434
        0.283009466201085        0.000201175287965        0.000543867074824        0.096408680002284
        0.285428350527590        0.000202236775565        0.000546171444704        0.096000117425077
        0.287847234854095        0.000203240136632        0.000548312208962        0.095569934096415
        0.290266119180600        0.000204556118656        0.000551289011283        0.095291467895508
        0.292685003507105        0.000205817842954        0.000554111670639        0.094991216770212
        0.295103887833610        0.000207418027032        0.000557836793336        0.094849378235722
        0.297522772160115        0.000208968280523        0.000561418218965        0.094685656816292
        0.299941656486620        0.000210877432706        0.000565953539614        0.094684215224889
        0.302360540813125        0.000212741343374        0.000570356355501        0.094660860578963
        0.304779425139630        0.000214978603388        0.000575748050170        0.094800763120740
        0.307198309466135        0.000217175570568        0.000581018932363        0.094918791053280
        0.309617193792640        0.000219753851997        0.000587296035130        0.095198148902202
        0.312036078119145        0.000222296942306        0.000593464265616        0.095455739252251
        0.314454962445650        0.000225222431147        0.000600637510895        0.095869859960090
        0.316873846772155        0.000228117874460        0.000607713818257        0.096262388204755
        0.319292731098660        0.000231389637832        0.000615774793269        0.096803853825548
        0.321711615425165        0.000234636435080        0.000623750507411        0.097323968401584
        0.324130499751670        0.000238246149922        0.000632671136759        0.097982757992558
        0.326549384078175        0.000241835802481        0.000641517679543        0.098620501985964
        0.328968268404680        0.000245767611935        0.000651250057964        0.099384156395495
        0.331387152731185        0.000249683980275        0.000660918785665        0.100127131515838
        0.333806037057690        0.000253914483161        0.000671395368781        0.100980957672827
        0.336224921384195        0.000258133780083        0.000681817775970        0.101814527734859
        0.338643805710700        0.000262632156476        0.000692951932375        0.102741839009268
        0.341062690037205        0.000267123077864        0.000704040220294        0.103649369501981
        0.343481574363710        0.000271851351325        0.000715727141657        0.104631758124353
        0.345900458690215        0.000276575344908        0.000727375147499        0.105594887867919
        0.348319343016720        0.000281488779454        0.000739493106769        0.106612524886111
        0.350738227343225        0.000286400449575        0.000751577583602        0.107611465269538
        0.353157111669730        0.000291448077055        0.000763989524883        0.108643423091604
        0.355575995996235        0.000296495721046        0.000776371755466        0.109657279956220
        0.357994880322740        0.000301620992247        0.000788927192875        0.110681872185546
        0.360413764649245        0.000306747261642        0.000801454914328        0.111688985077537
        0.362832648975750        0.000311888812192        0.000813992111278        0.112684118094337
        0.365251533302255        0.000317031489780        0.000826501721673        0.113662411357834
        0.367670417628760        0.000322124009855        0.000838850116595        0.114605941942570
        0.370089301955265        0.000327216891475        0.000851169129123        0.115533281965633
        0.372508186281770        0.000332192086368        0.000863151968782        0.116403375195650
        0.374927070608275        0.000337165954403        0.000875101674266        0.117257928055843
        0.377345954934780        0.000341953581313        0.000886538811639        0.118033409735821
        0.379764839261285        0.000346737255129        0.000897937105993        0.118793993519200
        0.382183723587790        0.000351266219999        0.000908647916181        0.119454691526694
        0.384602607914295        0.000355787666993        0.000919312245904        0.120101117711797
        0.387021492240800        0.000359987163958        0.000929118610870        0.120628186847666
        0.389440376567305        0.000364174653634        0.000938868986986        0.121141585351137
        0.391859260893810        0.000367975328592        0.000947598298031        0.121517810576304
        0.394278145220315        0.000371758610967        0.000956260327023        0.121880933344577
        0.396697029546820        0.000375093730045        0.000963748452936        0.122091006653604
        0.399115913873325        0.000378405218944        0.000971156332216        0.122288505049976
        0.401534798199830        0.000381211822087        0.000977250500896        0.122319271671755
        0.403953682526335        0.000383987763325        0.000983249926281        0.122337943343826
        0.406372566852840        0.000386207783088        0.000987811468433        0.122178613462804
        0.408791451179345        0.000388389387344        0.000992262401847        0.122007614874321
        0.411210335505850        0.000389970713011        0.000995169306999        0.121649937623977
        0.413629219832355        0.000391505233257        0.000997948554350        0.121280958989699
        0.416048104158860        0.000392402700848        0.000999097792013        0.120719356074833
        0.418466988485365        0.000393244434617        0.001000101343716        0.120146756038475
        0.420885872811870        0.000393420724068        0.000999410905833        0.119378412984992
        0.423304757138375        0.000393531921566        0.000998555995882        0.118599311019620
        0.425723641464880        0.000392958343401        0.000995966620915        0.117624224720268
        0.428142525791385        0.000392310003541        0.000993193464575        0.116638549898087
        0.430561410117890        0.000390967158770        0.000988670008439        0.115459531810222
        0.432980294444395        0.000389539696612        0.000983943183566        0.114270027274638
        0.435399178770900        0.000387417995263        0.000977475608196        0.112892662321252
        0.437818063097405        0.000385201766079        0.000970785050789        0.111504845488361
        0.440236947423910        0.000382301791814        0.000962389007217        0.109937407406165
        0.442655831750415        0.000379297459061        0.000953750597972        0.108359486615003
        0.445074716076920        0.000375630169624        0.000943467587425        0.106612811173029
        0.447493600403425        0.000371848906461        0.000932923312712        0.104855560183871
        0.449912484729930        0.000367435662294        0.000920820416201        0.102942878352663
        0.452331369056435        0.000362899178943        0.000908438093932        0.101019470750073
        0.454750253382940        0.000357771595123        0.000894607268071        0.098956204525291
        0.457169137709445        0.000352511987198        0.000880479836218        0.096882010707687
        0.459588022035950        0.000346711606863        0.000865036780388        0.094685534873308
        0.462006906362455        0.000340771022922        0.000849281153358        0.092477884893836
        0.464425790688960        0.000334348813493        0.000832363760761        0.090167258540204
        0.466844675015465        0.000327778943205        0.000815119266334        0.087845174595833
        0.469263559341970        0.000320794619959        0.000796885678787        0.085440846678267
        0.471682443668475        0.000313656007636        0.000778312095657        0.083024749516752
