#     time (fs)  |  E_x (eV/ang)  | E_y (eV/ang) | E_z (eV/ang)
     0.00000000     0.00000000     0.00000000     0.00000000
     0.00241888     0.04293784     0.00000000     0.04293784
     0.00483777     0.08579468     0.00000000     0.08579468
     0.00725665     0.12848965     0.00000000     0.12848965
     0.00967554     0.17094222     0.00000000     0.17094222
     0.01209442     0.21307228     0.00000000     0.21307228
     0.01451331     0.25480037     0.00000000     0.25480037
     0.01693219     0.29604774     0.00000000     0.29604774
     0.01935107     0.33673659     0.00000000     0.33673659
     0.02176996     0.37679015     0.00000000     0.37679015
     0.02418884     0.41613286     0.00000000     0.41613286
     0.02660773     0.45469049     0.00000000     0.45469049
     0.02902661     0.49239030     0.00000000     0.49239030
     0.03144550     0.52916117     0.00000000     0.52916117
     0.03386438     0.56493371     0.00000000     0.56493371
     0.03628326     0.59964045     0.00000000     0.59964045
     0.03870215     0.63321591     0.00000000     0.63321591
     0.04112103     0.66559674     0.00000000     0.66559674
     0.04353992     0.69672185     0.00000000     0.69672185
     0.04595880     0.72653253     0.00000000     0.72653253
     0.04837769     0.75497252     0.00000000     0.75497252
     0.05079657     0.78198818     0.00000000     0.78198818
     0.05321546     0.80752854     0.00000000     0.80752854
     0.05563434     0.83154541     0.00000000     0.83154541
     0.05805322     0.85399349     0.00000000     0.85399349
     0.06047211     0.87483042     0.00000000     0.87483042
     0.06289099     0.89401689     0.00000000     0.89401689
     0.06530988     0.91151670     0.00000000     0.91151670
     0.06772876     0.92729684     0.00000000     0.92729684
     0.07014765     0.94132755     0.00000000     0.94132755
     0.07256653     0.95358234     0.00000000     0.95358234
     0.07498541     0.96403809     0.00000000     0.96403809
     0.07740430     0.97267509     0.00000000     0.97267509
     0.07982318     0.97947704     0.00000000     0.97947704
     0.08224207     0.98443110     0.00000000     0.98443110
     0.08466095     0.98752793     0.00000000     0.98752793
     0.08707984     0.98876169     0.00000000     0.98876169
     0.08949872     0.98813005     0.00000000     0.98813005
     0.09191760     0.98563419     0.00000000     0.98563419
     0.09433649     0.98127884     0.00000000     0.98127884
     0.09675537     0.97507219     0.00000000     0.97507219
     0.09917426     0.96702598     0.00000000     0.96702598
     0.10159314     0.95715537     0.00000000     0.95715537
     0.10401203     0.94547899     0.00000000     0.94547899
     0.10643091     0.93201886     0.00000000     0.93201886
     0.10884979     0.91680038     0.00000000     0.91680038
     0.11126868     0.89985227     0.00000000     0.89985227
     0.11368756     0.88120648     0.00000000     0.88120648
     0.11610645     0.86089822     0.00000000     0.86089822
     0.11852533     0.83896577     0.00000000     0.83896577
     0.12094422     0.81545053     0.00000000     0.81545053
     0.12336310     0.79039686     0.00000000     0.79039686
     0.12578198     0.76385203     0.00000000     0.76385203
     0.12820087     0.73586610     0.00000000     0.73586610
     0.13061975     0.70649189     0.00000000     0.70649189
     0.13303864     0.67578481     0.00000000     0.67578481
     0.13545752     0.64380280     0.00000000     0.64380280
     0.13787641     0.61060618     0.00000000     0.61060618
     0.14029529     0.57625758     0.00000000     0.57625758
     0.14271418     0.54082182     0.00000000     0.54082182
     0.14513306     0.50436575     0.00000000     0.50436575
     0.14755194     0.46695813     0.00000000     0.46695813
     0.14997083     0.42866955     0.00000000     0.42866955
     0.15238971     0.38957224     0.00000000     0.38957224
     0.15480860     0.34973996     0.00000000     0.34973996
     0.15722748     0.30924786     0.00000000     0.30924786
     0.15964637     0.26817233     0.00000000     0.26817233
     0.16206525     0.22659087     0.00000000     0.22659087
     0.16448413     0.18458192     0.00000000     0.18458192
     0.16690302     0.14222474     0.00000000     0.14222474
     0.16932190     0.09959923     0.00000000     0.09959923
     0.17174079     0.05678582     0.00000000     0.05678582
     0.17415967     0.01386528     0.00000000     0.01386528
     0.17657856    -0.02908142    -0.00000000    -0.02908142
     0.17899744    -0.07197325    -0.00000000    -0.07197325
     0.18141632    -0.11472930    -0.00000000    -0.11472930
     0.18383521    -0.15726890    -0.00000000    -0.15726890
     0.18625409    -0.19951180    -0.00000000    -0.19951180
     0.18867298    -0.24137830    -0.00000000    -0.24137830
     0.19109186    -0.28278941    -0.00000000    -0.28278941
     0.19351075    -0.32366701    -0.00000000    -0.32366701
     0.19592963    -0.36393398    -0.00000000    -0.36393398
     0.19834851    -0.40351435    -0.00000000    -0.40351435
     0.20076740    -0.44233345    -0.00000000    -0.44233345
     0.20318628    -0.48031804    -0.00000000    -0.48031804
     0.20560517    -0.51739646    -0.00000000    -0.51739646
     0.20802405    -0.55349875    -0.00000000    -0.55349875
     0.21044294    -0.58855682    -0.00000000    -0.58855682
     0.21286182    -0.62250451    -0.00000000    -0.62250451
     0.21528071    -0.65527778    -0.00000000    -0.65527778
     0.21769959    -0.68681481    -0.00000000    -0.68681481
     0.22011847    -0.71705608    -0.00000000    -0.71705608
     0.22253736    -0.74594456    -0.00000000    -0.74594456
     0.22495624    -0.77342573    -0.00000000    -0.77342573
     0.22737513    -0.79944775    -0.00000000    -0.79944775
     0.22979401    -0.82396154    -0.00000000    -0.82396154
     0.23221290    -0.84692083    -0.00000000    -0.84692083
     0.23463178    -0.86828232    -0.00000000    -0.86828232
     0.23705066    -0.88800571    -0.00000000    -0.88800571
     0.23946955    -0.90605378    -0.00000000    -0.90605378
     0.24188843    -0.92239249    -0.00000000    -0.92239249
     0.24430732    -0.93699100    -0.00000000    -0.93699100
     0.24672620    -0.94982179    -0.00000000    -0.94982179
     0.24914509    -0.96086064    -0.00000000    -0.96086064
     0.25156397    -0.97008672    -0.00000000    -0.97008672
     0.25398285    -0.97748264    -0.00000000    -0.97748264
     0.25640174    -0.98303444    -0.00000000    -0.98303444
     0.25882062    -0.98673163    -0.00000000    -0.98673163
     0.26123951    -0.98856726    -0.00000000    -0.98856726
     0.26365839    -0.98853785     0.00000000    -0.98853785
     0.26607728    -0.98664346     0.00000000    -0.98664346
     0.26849616    -0.98288767     0.00000000    -0.98288767
     0.27091504    -0.97727756     0.00000000    -0.97727756
     0.27333393    -0.96982371     0.00000000    -0.96982371
     0.27575281    -0.96054019     0.00000000    -0.96054019
     0.27817170    -0.94944451     0.00000000    -0.94944451
     0.28059058    -0.93655760     0.00000000    -0.93655760
     0.28300947    -0.92190378     0.00000000    -0.92190378
     0.28542835    -0.90551070     0.00000000    -0.90551070
     0.28784723    -0.88740927     0.00000000    -0.88740927
     0.29026612    -0.86763365     0.00000000    -0.86763365
     0.29268500    -0.84622116     0.00000000    -0.84622116
     0.29510389    -0.82321218     0.00000000    -0.82321218
     0.29752277    -0.79865012     0.00000000    -0.79865012
     0.29994166    -0.77258133     0.00000000    -0.77258133
     0.30236054    -0.74505498     0.00000000    -0.74505498
     0.30477943    -0.71612301     0.00000000    -0.71612301
     0.30719831    -0.68584000     0.00000000    -0.68584000
     0.30961719    -0.65426308     0.00000000    -0.65426308
     0.31203608    -0.62145183     0.00000000    -0.62145183
     0.31445496    -0.58746814     0.00000000    -0.58746814
     0.31687385    -0.55237613     0.00000000    -0.55237613
     0.31929273    -0.51624201     0.00000000    -0.51624201
     0.32171162    -0.47913394     0.00000000    -0.47913394
     0.32413050    -0.44112194     0.00000000    -0.44112194
     0.32654938    -0.40227772     0.00000000    -0.40227772
     0.32896827    -0.36267455     0.00000000    -0.36267455
     0.33138715    -0.32238717     0.00000000    -0.32238717
     0.33380604    -0.28149156     0.00000000    -0.28149156
     0.33622492    -0.24006490     0.00000000    -0.24006490
     0.33864381    -0.19818532     0.00000000    -0.19818532
     0.34106269    -0.15593185     0.00000000    -0.15593185
     0.34348157    -0.11338420     0.00000000    -0.11338420
     0.34590046    -0.07062263     0.00000000    -0.07062263
     0.34831934    -0.02772783     0.00000000    -0.02772783
     0.35073823     0.01521928     0.00000000     0.01521928
     0.35315711     0.05813768     0.00000000     0.05813768
     0.35557600     0.10094639     0.00000000     0.10094639
     0.35799488     0.14356466     0.00000000     0.14356466
     0.36041376     0.18591209     0.00000000     0.18591209
     0.36283265     0.22790876     0.00000000     0.22790876
     0.36525153     0.26947547     0.00000000     0.26947547
     0.36767042     0.31053378     0.00000000     0.31053378
     0.37008930     0.35100624     0.00000000     0.35100624
     0.37250819     0.39081649     0.00000000     0.39081649
     0.37492707     0.42988942     0.00000000     0.42988942
     0.37734595     0.46815132     0.00000000     0.46815132
     0.37976484     0.50553000     0.00000000     0.50553000
     0.38218372     0.54195495     0.00000000     0.54195495
     0.38460261     0.57735745     0.00000000     0.57735745
     0.38702149     0.61167070     0.00000000     0.61167070
     0.38944038     0.64482997     0.00000000     0.64482997
     0.39185926     0.67677270     0.00000000     0.67677270
     0.39427815     0.70743863     0.00000000     0.70743863
     0.39669703     0.73676991     0.00000000     0.73676991
     0.39911591     0.76471119     0.00000000     0.76471119
     0.40153480     0.79120976     0.00000000     0.79120976
     0.40395368     0.81621564     0.00000000     0.81621564
     0.40637257     0.83968163     0.00000000     0.83968163
     0.40879145     0.86156349     0.00000000     0.86156349
     0.41121034     0.88181991     0.00000000     0.88181991
     0.41362922     0.90041269     0.00000000     0.90041269
     0.41604810     0.91730675     0.00000000     0.91730675
     0.41846699     0.93247021     0.00000000     0.93247021
     0.42088587     0.94587447     0.00000000     0.94587447
     0.42330476     0.95749424     0.00000000     0.95749424
     0.42572364     0.96730760     0.00000000     0.96730760
     0.42814253     0.97529603     0.00000000     0.97529603
     0.43056141     0.98144446     0.00000000     0.98144446
     0.43298029     0.98574130     0.00000000     0.98574130
     0.43539918     0.98817844     0.00000000     0.98817844
     0.43781806     0.98875127     0.00000000     0.98875127
     0.44023695     0.98745872     0.00000000     0.98745872
     0.44265583     0.98430323     0.00000000     0.98430323
     0.44507472     0.97929075     0.00000000     0.97929075
     0.44749360     0.97243073     0.00000000     0.97243073
     0.44991248     0.96373612     0.00000000     0.96373612
     0.45233137     0.95322333     0.00000000     0.95322333
     0.45475025     0.94091218     0.00000000     0.94091218
     0.45716914     0.92682590     0.00000000     0.92682590
     0.45958802     0.91099107     0.00000000     0.91099107
     0.46200691     0.89343756     0.00000000     0.89343756
     0.46442579     0.87419848     0.00000000     0.87419848
     0.46684468     0.85331014     0.00000000     0.85331014
     0.46926356     0.83081194     0.00000000     0.83081194
     0.47168244     0.80674633     0.00000000     0.80674633
     0.47410133     0.78115871     0.00000000     0.78115871
     0.47652021     0.75409735     0.00000000     0.75409735
     0.47893910     0.72561331     0.00000000     0.72561331
     0.48135798     0.69576032     0.00000000     0.69576032
     0.48377687     0.66459471     0.00000000     0.66459471
     0.48619575     0.63217528     0.00000000     0.63217528
     0.48861463     0.59856317     0.00000000     0.59856317
     0.49103352     0.56382182     0.00000000     0.56382182
     0.49345240     0.52801676     0.00000000     0.52801676
     0.49587129     0.49121554     0.00000000     0.49121554
     0.49829017     0.45348759     0.00000000     0.45348759
     0.50070906     0.41490409     0.00000000     0.41490409
     0.50312794     0.37553783     0.00000000     0.37553783
     0.50554682     0.33546308     0.00000000     0.33546308
     0.50796571     0.29475544     0.00000000     0.29475544
     0.51038459     0.25349172     0.00000000     0.25349172
     0.51280348     0.21174975     0.00000000     0.21174975
     0.51522236     0.16960830     0.00000000     0.16960830
     0.51764125     0.12714687     0.00000000     0.12714687
     0.52006013     0.08444556     0.00000000     0.08444556
     0.52247901     0.04158494     0.00000000     0.04158494
     0.52489790    -0.00135414    -0.00000000    -0.00135414
     0.52731678    -0.04429067    -0.00000000    -0.04429067
     0.52973567    -0.08714363    -0.00000000    -0.08714363
     0.53215455    -0.12983219    -0.00000000    -0.12983219
     0.53457344    -0.17227581    -0.00000000    -0.17227581
     0.53699232    -0.21439441    -0.00000000    -0.21439441
     0.53941120    -0.25610854    -0.00000000    -0.25610854
     0.54183009    -0.29733949    -0.00000000    -0.29733949
     0.54424897    -0.33800948    -0.00000000    -0.33800948
     0.54666786    -0.37804177    -0.00000000    -0.37804177
     0.54908674    -0.41736086    -0.00000000    -0.41736086
     0.55150563    -0.45589254    -0.00000000    -0.45589254
     0.55392451    -0.49356414    -0.00000000    -0.49356414
     0.55634340    -0.53030458    -0.00000000    -0.53030458
     0.55876228    -0.56604455    -0.00000000    -0.56604455
     0.56118116    -0.60071661    -0.00000000    -0.60071661
     0.56360005    -0.63425536    -0.00000000    -0.63425536
     0.56601893    -0.66659752    -0.00000000    -0.66659752
     0.56843782    -0.69768207    -0.00000000    -0.69768207
     0.57085670    -0.72745038    -0.00000000    -0.72745038
     0.57327559    -0.75584627    -0.00000000    -0.75584627
     0.57569447    -0.78281619    -0.00000000    -0.78281619
     0.57811335    -0.80830923    -0.00000000    -0.80830923
     0.58053224    -0.83227732    -0.00000000    -0.83227732
     0.58295112    -0.85467523    -0.00000000    -0.85467523
     0.58537001    -0.87546071    -0.00000000    -0.87546071
     0.58778889    -0.89459454    -0.00000000    -0.89459454
     0.59020778    -0.91204063    -0.00000000    -0.91204063
     0.59262666    -0.92776605    -0.00000000    -0.92776605
     0.59504554    -0.94174115    -0.00000000    -0.94174115
     0.59746443    -0.95393956    -0.00000000    -0.95393956
     0.59988331    -0.96433826    -0.00000000    -0.96433826
     0.60230220    -0.97291763    -0.00000000    -0.97291763
     0.60472108    -0.97966150    -0.00000000    -0.97966150
     0.60713997    -0.98455713    -0.00000000    -0.98455713
     0.60955885    -0.98759530    -0.00000000    -0.98759530
     0.61197773    -0.98877026    -0.00000000    -0.98877026
     0.61439662    -0.98807980     0.00000000    -0.98807980
     0.61681550    -0.98552523     0.00000000    -0.98552523
     0.61923439    -0.98111137     0.00000000    -0.98111137
     0.62165327    -0.97484653     0.00000000    -0.97484653
     0.62407216    -0.96674255     0.00000000    -0.96674255
     0.62649104    -0.95681471     0.00000000    -0.95681471
     0.62890992    -0.94508173     0.00000000    -0.94508173
     0.63132881    -0.93156576     0.00000000    -0.93156576
     0.63374769    -0.91629230     0.00000000    -0.91629230
     0.63616658    -0.89929015     0.00000000    -0.89929015
     0.63858546    -0.88059141     0.00000000    -0.88059141
     0.64100435    -0.86023133     0.00000000    -0.86023133
     0.64342323    -0.83824834     0.00000000    -0.83824834
     0.64584212    -0.81468390     0.00000000    -0.81468390
     0.64826100    -0.78958248     0.00000000    -0.78958248
     0.65067988    -0.76299143     0.00000000    -0.76299143
     0.65309877    -0.73496092     0.00000000    -0.73496092
     0.65551765    -0.70554383     0.00000000    -0.70554383
     0.65793654    -0.67479566     0.00000000    -0.67479566
     0.66035542    -0.64277441     0.00000000    -0.64277441
     0.66277431    -0.60954051     0.00000000    -0.60954051
     0.66519319    -0.57515664     0.00000000    -0.57515664
     0.66761207    -0.53968768     0.00000000    -0.53968768
     0.67003096    -0.50320054     0.00000000    -0.50320054
     0.67244984    -0.46576407     0.00000000    -0.46576407
     0.67486873    -0.42744888     0.00000000    -0.42744888
     0.67728761    -0.38832726     0.00000000    -0.38832726
     0.67970650    -0.34847302     0.00000000    -0.34847302
     0.68212538    -0.30796136     0.00000000    -0.30796136
     0.68454426    -0.26686869     0.00000000    -0.26686869
     0.68696315    -0.22527255     0.00000000    -0.22527255
     0.68938203    -0.18325141     0.00000000    -0.18325141
     0.69180092    -0.14088454     0.00000000    -0.14088454
     0.69421980    -0.09825188     0.00000000    -0.09825188
     0.69663869    -0.05543386     0.00000000    -0.05543386
     0.69905757    -0.01251126     0.00000000    -0.01251126
     0.70147645     0.03043495     0.00000000     0.03043495
     0.70389534     0.07332374     0.00000000     0.07332374
     0.70631422     0.11607419     0.00000000     0.11607419
     0.70873311     0.15860566     0.00000000     0.15860566
     0.71115199     0.20083790     0.00000000     0.20083790
     0.71357088     0.24269125     0.00000000     0.24269125
     0.71598976     0.28408673     0.00000000     0.28408673
     0.71840864     0.32494625     0.00000000     0.32494625
     0.72082753     0.36519272     0.00000000     0.36519272
     0.72324641     0.40475022     0.00000000     0.40475022
     0.72566530     0.44354412     0.00000000     0.44354412
     0.72808418     0.48150123     0.00000000     0.48150123
     0.73050307     0.51854993     0.00000000     0.51854993
     0.73292195     0.55462034     0.00000000     0.55462034
     0.73534084     0.58964439     0.00000000     0.58964439
     0.73775972     0.62355603     0.00000000     0.62355603
     0.74017860     0.65629125     0.00000000     0.65629125
     0.74259749     0.68778832     0.00000000     0.68778832
     0.74501637     0.71798780     0.00000000     0.71798780
     0.74743526     0.74683273     0.00000000     0.74683273
     0.74985414     0.77426868     0.00000000     0.77426868
     0.75227303     0.80024388     0.00000000     0.80024388
     0.75469191     0.82470935     0.00000000     0.82470935
     0.75711079     0.84761892     0.00000000     0.84761892
     0.75952968     0.86892936     0.00000000     0.86892936
     0.76194856     0.88860048     0.00000000     0.88860048
     0.76436745     0.90659516     0.00000000     0.90659516
     0.76678633     0.92287946     0.00000000     0.92287946
     0.76920522     0.93742265     0.00000000     0.93742265
     0.77162410     0.95019729     0.00000000     0.95019729
     0.77404298     0.96117929     0.00000000     0.96117929
     0.77646187     0.97034792     0.00000000     0.97034792
     0.77888075     0.97768589     0.00000000     0.97768589
     0.78129964     0.98317936     0.00000000     0.98317936
     0.78371852     0.98681795     0.00000000     0.98681795
     0.78613741     0.98859481     0.00000000     0.98859481
