#             time (fs)      |   total net charge (e)  |   charge (atom_1) (e)   |   charge (atom_2) (e)   |        ...        |   charge (atom_N) (e)   |
          0.000000000000000       -0.000000000000000       -0.000000000000000        0.000000000000000
          0.120944216325250        0.000000000011433       -0.000025699161524        0.000025699172956
          0.241888432650500       -0.000000000023236        0.000099015770544       -0.000099015793780
          0.362832648975750       -0.000000000097399       -0.000111148209081        0.000111148111681
          0.483776865301000       -0.000000000196735       -0.000043040111651        0.000043039914916
          0.604721081626250       -0.000000000329926        0.000193090742885       -0.000193091072811
          0.725665297951500       -0.000000000459711       -0.000096312628040        0.000096312168328
          0.846609514276750       -0.000000000636127       -0.000503786131776        0.000503785495649
          0.967553730602000       -0.000000000758518        0.001497431428271       -0.001497432186789
          1.088497946927250       -0.000000000962892       -0.002476509463153        0.002476508500261
          1.209442163252500       -0.000000001069028        0.002812541496063       -0.002812542565091
          1.330386379577750       -0.000000001262457       -0.002165665431912        0.002165664169455
          1.451330595903000       -0.000000001373793        0.000701296900349       -0.000701298274141
          1.572274812228250       -0.000000001513721        0.000823059608640       -0.000823061122361
          1.693219028553500       -0.000000001618248       -0.001543327298898        0.001543325680649
          1.814163244878750       -0.000000001696793        0.001001750559932       -0.001001752256725
          1.935107461204000       -0.000000001750938        0.000427382665804       -0.000427384416742
          2.056051677529250       -0.000000001771335       -0.001718700431536        0.001718698660201
          2.176995893854500       -0.000000001764339        0.001792542916633       -0.001792544680972
          2.297940110179750       -0.000000001734672       -0.000262877566091        0.000262875831420
          2.418884326505000       -0.000000001670381       -0.002210723262951        0.002210721592570
          2.539828542830250       -0.000000001633821        0.004249969187193       -0.004249970821014
          2.660772759155500       -0.000000001529352       -0.004549610039958        0.004549608510605
          2.781716975480750       -0.000000001487639        0.002746855619023       -0.002746857106662
          2.902661191806000       -0.000000001398582        0.000344022951312       -0.000344024349894
          3.023605408131250       -0.000000001303089       -0.003112645992084        0.003112644688995
          3.144549624456500       -0.000000001261932        0.004168657646507       -0.004168658908439
          3.265493840781750       -0.000000001125359       -0.003084908751427        0.003084907626068
          3.386438057107000       -0.000000001098476        0.000732233028863       -0.000732234127338
          3.507382273432250       -0.000000001002550        0.001359321517229       -0.001359322519779
          3.628326489757500       -0.000000000971531       -0.001816296523306        0.001816295551774
          3.749270706082750       -0.000000000921769        0.000348374633452       -0.000348375555221
          3.870214922408000       -0.000000001001617        0.002227188370818       -0.002227189372435
          3.991159138733250       -0.000000000984494       -0.004372118258276        0.004372117273782
          4.112103355058500       -0.000000001178527        0.004883739969271       -0.004883741147799
          4.233047571383750       -0.000000001245332       -0.003463410574985        0.003463409329653
          4.353991787709000       -0.000000001545489        0.001005433363806       -0.001005434909295
          4.474936004034250       -0.000000001793061        0.001087680481723       -0.001087682274784
          4.595880220359500       -0.000000002147904       -0.001608513022867        0.001608510874963
          4.716824436684750       -0.000000002485675        0.000386968129736       -0.000386970615412
          4.837768653010000       -0.000000002905074        0.001736679306341       -0.001736682211415
          4.958712869335250       -0.000000003259235       -0.003283531679253        0.003283528420018
          5.079657085660500       -0.000000003679686        0.003116569316082       -0.003116572995768
          5.200601301985750       -0.000000004067791       -0.001020598074179        0.001020594006388
          5.321545518311000       -0.000000004432575       -0.002037430795510        0.002037426362935
          5.442489734636251       -0.000000004767215        0.004498054691904       -0.004498059459119
          5.563433950961501       -0.000000004970070       -0.005002766849971        0.005002761879901
          5.684378167286750       -0.000000005144916        0.003227244996536       -0.003227250141452
          5.805322383612000       -0.000000005216060       -0.000057809213515        0.000057803997455
          5.926266599937250       -0.000000005200659       -0.002843505151190        0.002843499950531
          6.047210816262500       -0.000000005089944        0.003970351656214       -0.003970356746157
          6.168155032587750       -0.000000004915123       -0.002840721163637        0.002840716248514
          6.289099248913001       -0.000000004625533        0.000281295629508       -0.000281300255041
          6.410043465238251       -0.000000004293104        0.001989416424534       -0.001989420717638
          6.530987681563500       -0.000000003883922       -0.002416916539225        0.002416912655303
          6.651931897888750       -0.000000003468402        0.000519577698250       -0.000519581166652
          6.772876114214000       -0.000000002986767        0.002646683582644       -0.002646686569411
          6.893820330539250       -0.000000002611830       -0.005104527306272        0.005104524694442
          7.014764546864500       -0.000000002164017        0.005009283378355       -0.005009285542372
          7.135708763189751       -0.000000001771833       -0.001956280829415        0.001956279057582
          7.256652979515001       -0.000000001338669       -0.002700068837927        0.002700067499259
          7.377597195840250       -0.000000000904482        0.006335469886473       -0.006335470790956
          7.498541412165500       -0.000000000719628       -0.006680142841305        0.006680142121677
          7.619485628490750       -0.000000000420149        0.003150166281264       -0.003150166701413
          7.740429844816000       -0.000000000218474        0.002419911842303       -0.002419912060777
          7.861374061141250       -0.000000000119741       -0.006775982945379        0.006775982825638
          7.982318277466501        0.000000000010708        0.006986956595621       -0.006986956584913
          8.103262493791750        0.000000000056769       -0.002508561621843        0.002508561678612
          8.224206710117000        0.000000000164237       -0.004298757915396        0.004298758079633
          8.345150926442249        0.000000000305487        0.009179929583304       -0.009179929277818
          8.466095142767500        0.000000000273413       -0.008625907195354        0.008625907468767
          8.587039359092751        0.000000000383048        0.002118357660197       -0.002118357277149
          8.707983575418000        0.000000000555498        0.007044634803542       -0.007044634248043
          8.828927791743251        0.000000000546121       -0.013520322470279        0.013520323016400
          8.949872008068500        0.000000000706663        0.013015311647880       -0.013015310941217
          9.070816224393750        0.000000000667291       -0.005208040780316        0.005208041447607
          9.191760440718999        0.000000000683368       -0.005764619028919        0.005764619712287
          9.312704657044250        0.000000000674535        0.013503836750980       -0.013503836076445
          9.433648873369501        0.000000000599766       -0.013263545836327        0.013263546436094
          9.554593089694750        0.000000000590406        0.004971721462227       -0.004971720871821
          9.675537306020001        0.000000000589151        0.006495582809489       -0.006495582220338
          9.796481522345250        0.000000000638787       -0.014187330941237        0.014187331580024
          9.917425738670500        0.000000000688097        0.013324832139057       -0.013324831450960
         10.038369954995749        0.000000000786753       -0.004256010039229        0.004256010825982
         10.159314171321000        0.000000000855147       -0.007708515953156        0.007708516808304
         10.280258387646251        0.000000000781777        0.015576198763922       -0.015576197982145
         10.401202603971500        0.000000000882294       -0.014852197448986        0.014852198331280
         10.522146820296751        0.000000000684139        0.006218396543095       -0.006218395858956
         10.643091036622000        0.000000000497873        0.005117752874165       -0.005117752376292
         10.764035252947250        0.000000000403966       -0.012600721389295        0.012600721793261
         10.884979469272501        0.000000000109053        0.012323590549973       -0.012323590440920
         11.005923685597750       -0.000000000034310       -0.005058873552050        0.005058873517740
         11.126867901923001       -0.000000000418468       -0.004370312601452        0.004370312182984
         11.247812118248250       -0.000000000750669        0.010265347135153       -0.010265347885823
         11.368756334573501       -0.000000000933554       -0.009295540059098        0.009295539125544
         11.489700550898750       -0.000000001369384        0.002400714128621       -0.002400715498004
         11.610644767224001       -0.000000001950443        0.006150288623647       -0.006150290574089
         11.731588983549251       -0.000000002270361       -0.011288860498148        0.011288858227787
         11.852533199874500       -0.000000002861768        0.010235888411857       -0.010235891273626
         11.973477416199751       -0.000000003401594       -0.003823239364226        0.003823235962632
         12.094421632525000       -0.000000004240575       -0.004049817881347        0.004049813640773
         12.215365848850251       -0.000000005014824        0.008934390268616       -0.008934395283440
         12.336310065175500       -0.000000005629195       -0.008269293766709        0.008269288137515
         12.457254281500751       -0.000000006393869        0.002876360783458       -0.002876367177327
         12.578198497826001       -0.000000007115412        0.003767094131718       -0.003767101247130
         12.699142714151250       -0.000000007716994       -0.007520019668446        0.007520011951452
         12.820086930476501       -0.000000008307138        0.006095073988808       -0.006095082295946
         12.941031146801750       -0.000000008878479       -0.000284508560835        0.000284499682356
         13.061975363127001       -0.000000009301619       -0.006432510108133        0.006432500806514
         13.182919579452250       -0.000000009579591        0.009961383564382       -0.009961393143973
         13.303863795777501       -0.000000009693076       -0.007926422234979        0.007926412541903
         13.424808012102751       -0.000000009700504        0.001137700744569       -0.001137710445073
         13.545752228428000       -0.000000009522857        0.006786210586228       -0.006786220109085
         13.666696444753251       -0.000000009260771       -0.011403581189470        0.011403571928699
         13.787640661078500       -0.000000008847576        0.009971621357921       -0.009971630205497
         13.908584877403751       -0.000000008336149       -0.003140713456670        0.003140705120521
         14.029529093729000       -0.000000007564822       -0.005306764293712        0.005306756728890
         14.150473310054251       -0.000000006742581        0.010451609569146       -0.010451616311726
         14.271417526379501       -0.000000006008479       -0.009153359295393        0.009153353286914
         14.392361742704750       -0.000000005041295        0.001951516742303       -0.001951521783599
         14.513305959030001       -0.000000004014498        0.006902425436542       -0.006902429451040
         14.634250175355250       -0.000000003224760       -0.011849510158757        0.011849506933997
         14.755194391680501       -0.000000002281352        0.009208343225373       -0.009208345506725
         14.876138608005750       -0.000000001127481        0.000236054885111       -0.000236056012592
         14.997082824331001        0.000000000012014       -0.011389732093593        0.011389732105606
         15.118027040656251        0.000000001096874        0.017427859274475       -0.017427858177600
         15.238971256981500        0.000000001621588       -0.014023788963039        0.014023790584627
         15.359915473306751        0.000000002680350        0.002221450190031       -0.002221447509681
         15.480859689632000        0.000000003671449        0.011451294842036       -0.011451291170587
         15.601803905957251        0.000000004135573       -0.018614779137430        0.018614783273002
         15.722748122282500        0.000000004811679        0.014014287848175       -0.014014283036496
         15.843692338607751        0.000000005559910        0.000622023967610       -0.000622018407700
         15.964636554933001        0.000000006311642       -0.016998426406804        0.016998432718446
         16.085580771258250        0.000000007092771        0.024691870404792       -0.024691863312021
         16.206524987583499        0.000000007488932       -0.017706464417751        0.017706471906682
         16.327469203908752        0.000000008292986       -0.001312839224906        0.001312847517893
         16.448413420234001        0.000000009166581        0.021792950279200       -0.021792941112619
         16.569357636559250        0.000000009556648       -0.031286648988806        0.031286658545454
         16.690301852884499        0.000000010134313        0.023117670700520       -0.023117660566207
         16.811246069209751        0.000000010439135       -0.001079395103823        0.001079405542958
         16.932190285535000        0.000000010638230       -0.022311180560174        0.022311191198404
         17.053134501860249        0.000000010742206        0.033112515859865       -0.033112505117659
         17.174078718185502        0.000000010747506       -0.024561442144265        0.024561452891771
         17.295022934510751        0.000000010717417        0.001449432471017       -0.001449421753600
         17.415967150836000        0.000000010640265        0.022600688978524       -0.022600678338259
         17.536911367161249        0.000000010735467       -0.033357306031785        0.033357316767253
         17.657855583486501        0.000000010641992        0.024636962833683       -0.024636952191692
         17.778799799811750        0.000000010537927       -0.001886567057333        0.001886577595261
         17.899744016136999        0.000000010306941       -0.021295652313517        0.021295662620458
         18.020688232462252        0.000000009825327        0.031582960665473       -0.031582950840146
         18.141632448787501        0.000000009671107       -0.023731302458268        0.023731312129375
         18.262576665112750        0.000000008701226        0.003364006431811       -0.003363997730585
         18.383520881437999        0.000000007653472        0.017013146416259       -0.017013138762787
         18.504465097763251        0.000000007185648       -0.025632627132860        0.025632634318507
         18.625409314088500        0.000000006200739        0.018379254043013       -0.018379247842274
         18.746353530413749        0.000000005024194       -0.000548735674028        0.000548740698222
         18.867297746739002        0.000000003693197       -0.016747349374052        0.016747353067250
         18.988241963064251        0.000000002587579        0.023534379085276       -0.023534376497698
         19.109186179389500        0.000000001841128       -0.016513479065401        0.016513480906529
         19.230130395714749        0.000000000245864        0.000641459451319       -0.000641459205456
         19.351074612040001       -0.000000001316819        0.014392802319254       -0.014392803636073
         19.472018828365250       -0.000000002070812       -0.019873416985138        0.019873414914326
         19.592963044690499       -0.000000003344354        0.013114451385250       -0.013114454729604
         19.713907261015752       -0.000000005059155        0.001481071184017       -0.001481076243171
         19.834851477341001       -0.000000006754455       -0.015162383609355        0.015162376854901
         19.955795693666250       -0.000000008064495        0.020134586891129       -0.020134594955624
         20.076739909991499       -0.000000008983910       -0.013816561453908        0.013816552469998
         20.197684126316751       -0.000000010333074        0.000211245627497       -0.000211255960572
         20.318628342642000       -0.000000011484784        0.012697267454017       -0.012697278938802
         20.439572558967249       -0.000000012242077       -0.017507927120028        0.017507914877951
         20.560516775292502       -0.000000013016785        0.011696438579476       -0.011696451596262
         20.681460991617751       -0.000000013647107        0.001081146496314       -0.001081160143421
         20.802405207943000       -0.000000013932745       -0.013086287293053        0.013086273360309
         20.923349424268253       -0.000000013970622        0.017018759009507       -0.017018772980129
         21.044293640593501       -0.000000013832094       -0.010254662620982        0.010254648788888
         21.165237856918750       -0.000000013312617       -0.003493748242847        0.003493734930230
         21.286182073243999       -0.000000012494910        0.016153798171596       -0.016153810666506
         21.407126289569252       -0.000000011905648       -0.019898099782097        0.019898087876449
         21.528070505894501       -0.000000010952663        0.011770438805118       -0.011770449757780
         21.649014722219750       -0.000000009365982        0.004213887961104       -0.004213897327086
         21.769958938545003       -0.000000007619252       -0.019060894649545        0.019060887030293
         21.890903154870252       -0.000000006113380        0.023753176877237       -0.023753182990617
         22.011847371195501       -0.000000004850979       -0.014761859005284        0.014761854154304
         22.132791587520749       -0.000000002655632       -0.003455397792000        0.003455395136368
         22.253735803846002       -0.000000000507009        0.020355324915316       -0.020355325422325
         22.374680020171251        0.000000000704378       -0.025307642755790        0.025307643460168
         22.495624236496500        0.000000002747318        0.014015955496842       -0.014015952749524
         22.616568452821753        0.000000005695059        0.008046527325048       -0.008046521629989
         22.737512669147002        0.000000007962764       -0.028138804743120        0.028138812705884
         22.858456885472251        0.000000009646403        0.033308473048129       -0.033308463401727
         22.979401101797500        0.000000010922901       -0.018653215263094        0.018653226185995
         23.100345318122752        0.000000013468338       -0.008784984347959        0.008784997816297
