#           time (fs)       | force (atom_1) (H/b)   |  force (atom_2) (H/b)  |           ...          |  force (atom_N) (H/b)  |
        0.000000000000000       -0.000000000000000       -0.000000000000000       -0.001977038000788       -0.000000000000000       -0.000000000000000        0.001977038000788
        0.120944216325250        0.000004412204042       -0.000087737747665       -0.001530881965035       -0.000004412204042        0.000087737747711        0.001530881965035
        0.241888432650500        0.000005848754927       -0.000019918429250       -0.001015462491258       -0.000005848754927        0.000019918429299        0.001015462491258
        0.362832648975750        0.000003836740775       -0.000284123364349       -0.000444449452894       -0.000003836740775        0.000284123364126        0.000444449452894
        0.483776865301000       -0.000002140579309       -0.000469802709637        0.000186128095707        0.000002140579309        0.000469802709121       -0.000186128095707
        0.604721081626250       -0.000012554927207        0.000024546483549        0.000874059327240        0.000012554927207       -0.000024546483394       -0.000874059327240
        0.725665297951500       -0.000027329366213       -0.000655999148960        0.001586836651401        0.000027329366213        0.000655999148850       -0.001586836651401
        0.846609514276750       -0.000046507330329        0.000053220246628        0.002316494167339        0.000046507330329       -0.000053220247898       -0.002316494167339
        0.967553730602000       -0.000070626220717       -0.000486170828100        0.003080572814616        0.000070626220717        0.000486170829828       -0.003080572814616
        1.088497946927250       -0.000099487965726       -0.000576446661972        0.003860307827916        0.000099487965726        0.000576446668443       -0.003860307827916
        1.209442163252500       -0.000133051545978        0.000343908511781        0.004649859999269        0.000133051545978       -0.000343908512161       -0.004649859999269
        1.330386379577750       -0.000170802262633       -0.000886721874047        0.005430395736278        0.000170802262633        0.000886721870760       -0.005430395736278
        1.451330595903000       -0.000212065450537        0.000610972936060        0.006184593949928        0.000212065450537       -0.000610972932931       -0.006184593949928
        1.572274812228250       -0.000256410446232       -0.000488866941930        0.006906930281218        0.000256410446232        0.000488866940594       -0.006906930281218
        1.693219028553500       -0.000304630188419       -0.000175111787515        0.007624000279180        0.000304630188419        0.000175111771719       -0.007624000279180
        1.814163244878750       -0.000357013786662        0.000894151665800        0.008343514521841        0.000357013786662       -0.000894151665053       -0.008343514521841
        1.935107461204000       -0.000410057847156       -0.000774471691337        0.008988074823420        0.000410057847156        0.000774471704389       -0.008988074823420
        2.056051677529250       -0.000463009907499        0.001515529501434        0.009555095787303        0.000463009907499       -0.001515529504515       -0.009555095787303
        2.176995893854500       -0.000518075011312       -0.000379970203109        0.010100175833783        0.000518075011312        0.000379970202553       -0.010100175833783
        2.297940110179750       -0.000573386215509        0.000618572907588        0.010591992876527        0.000573386215509       -0.000618572885345       -0.010591992876527
        2.418884326505000       -0.000629367528848        0.001448542692411        0.011045642459039        0.000629367528848       -0.001448542692782       -0.011045642459039
        2.539828542830250       -0.000685047964416       -0.000458885248247        0.011450004432853        0.000685047964416        0.000458885228715       -0.011450004432853
        2.660772759155500       -0.000737082312405        0.002504318348061        0.011758089134479        0.000737082312405       -0.002504318346967       -0.011758089134479
        2.781716975480750       -0.000785161635384       -0.000326072013056        0.011977435102638        0.000785161635384        0.000326072018981       -0.011977435102638
        2.902661191806000       -0.000830010831940        0.001561735871020        0.012129470739509        0.000830010831940       -0.001561735886535       -0.012129470739509
        3.023605408131250       -0.000877442640641        0.001734215207672        0.012303524223350        0.000877442640641       -0.001734215209187       -0.012303524223350
        3.144549624456500       -0.000919691491091       -0.000131554115011        0.012392086766474        0.000919691491091        0.000131554128376       -0.012392086766474
        3.265493840781750       -0.000953159395051        0.003247973576158        0.012357863448752        0.000953159395051       -0.003247973575812       -0.012357863448752
        3.386438057107000       -0.000983289585868       -0.000494085352091        0.012282036489072        0.000983289585868        0.000494085346887       -0.012282036489072
        3.507382273432250       -0.001004500035498        0.002390219024399        0.012101577124266        0.001004500035498       -0.002390219026424       -0.012101577124266
        3.628326489757500       -0.001024429072039        0.001492314534370        0.011915982808407        0.001024429072039       -0.001492314528540       -0.011915982808407
        3.749270706082750       -0.001041960453593        0.000022447033199        0.011713121017881        0.001041960453593       -0.000022447016627       -0.011713121017881
        3.870214922408000       -0.001051672556259        0.003489237863643        0.011435664789161        0.001051672556259       -0.003489237863236       -0.011435664789161
        3.991159138733250       -0.001050278157360       -0.001026951115139        0.011056083658114        0.001050278157360        0.001026951103880       -0.011056083658114
        4.112103355058500       -0.001036106261836        0.002827908327167        0.010566906820397        0.001036106261836       -0.002827908307049       -0.010566906820397
        4.233047571383750       -0.001027317362298        0.000609574786442        0.010157840108578        0.001027317362298       -0.000609574794742       -0.010157840108578
        4.353991787709000       -0.001012397066980       -0.000096689971964        0.009711482887110        0.001012397066980        0.000096689905349       -0.009711482887110
        4.474936004034250       -0.000989189836884        0.003023285771141        0.009211218188366        0.000989189836884       -0.003023285774319       -0.009211218188366
        4.595880220359500       -0.000959262714475       -0.001977759065727        0.008676095368428        0.000959262714475        0.001977759115090       -0.008676095368428
        4.716824436684750       -0.000915807243434        0.002758835536619        0.008049520636374        0.000915807243434       -0.002758835564763       -0.008049520636374
        4.837768653010000       -0.000871293961522       -0.000918224601916        0.007446023286504        0.000871293961522        0.000918224598185       -0.007446023286504
        4.958712869335250       -0.000827959560832       -0.000516627700379        0.006882767297993        0.000827959560832        0.000516627814353       -0.006882767297993
        5.079657085660500       -0.000787393687256        0.001874673891197        0.006369829896553        0.000787393687256       -0.001874673882149       -0.006369829896553
        5.200601301985750       -0.000732662319174       -0.003245684918535        0.005770288649059        0.000732662319174        0.003245684810640       -0.005770288649059
        5.321545518311000       -0.000667310407028        0.002182166667000        0.005118518718409        0.000667310407028       -0.002182166644167       -0.005118518718409
        5.442489734636251       -0.000608856130490       -0.002875062302672        0.004549972182607        0.000608856130490        0.002875062341858       -0.004549972182607
        5.563433950961501       -0.000555031610208       -0.001063905662197        0.004042366861205        0.000555031610208        0.001063905525173       -0.004042366861205
        5.684378167286750       -0.000506053317647        0.000218222099737        0.003593143253074        0.000506053317647       -0.000218222126785       -0.003593143253074
        5.805322383612000       -0.000451027747704       -0.004539370959920        0.003122998740207        0.000451027747704        0.004539371118161       -0.003122998740207
        5.926266599937250       -0.000394984058460        0.001392143124841        0.002667845820704        0.000394984058460       -0.001392143133887       -0.002667845820704
        6.047210816262500       -0.000336852714088       -0.004896732362501        0.002219982120681        0.000336852714088        0.004896732259535       -0.002219982120681
        6.168155032587750       -0.000298320300242       -0.001439321907119        0.001918801294825        0.000298320300242        0.001439322028748       -0.001918801294825
        6.289099248913001       -0.000277636833752       -0.001493139139541        0.001743274730548        0.000277636833752        0.001493139211343       -0.001743274730548
        6.410043465238251       -0.000245809482092       -0.005385695801322        0.001507049066130        0.000245809482092        0.005385695630527       -0.001507049066130
        6.530987681563500       -0.000217734595653        0.000754444175202        0.001303735875887        0.000217734595653       -0.000754444184608       -0.001303735875887
        6.651931897888750       -0.000197087546440       -0.006450520270961        0.001152772055138        0.000197087546440        0.006450520442389       -0.001152772055138
        6.772876114214000       -0.000205726596322       -0.001166684845310        0.001175657876465        0.000205726596322        0.001166684765762       -0.001175657876465
        6.893820330539250       -0.000227107697100       -0.002804444945045        0.001268260751166        0.000227107697100        0.002804444788974       -0.001268260751166
        7.014764546864500       -0.000246402853780       -0.005304056545055        0.001344882748501        0.000246402853780        0.005304056664518       -0.001344882748501
        7.135708763189751       -0.000276053942282        0.000738877599615        0.001472876718778        0.000276053942282       -0.000738877562100       -0.001472876718778
        7.256652979515001       -0.000306043426927       -0.007060320797156        0.001596456480758        0.000306043426927        0.007060320591633       -0.001596456480758
        7.377597195840250       -0.000371918980227        0.000067386819934        0.001897089871984        0.000371918980227       -0.000067386785630       -0.001897089871984
        7.498541412165500       -0.000460350394597       -0.003298026120094        0.002296432713856        0.000460350394597        0.003298026392709       -0.002296432713856
        7.619485628490750       -0.000540309331859       -0.003935237591617        0.002636267828989        0.000540309331859        0.003935237581549       -0.002636267828989
        7.740429844816000       -0.000621281922264        0.001518835502328        0.002965308415642        0.000621281922264       -0.001518835590666       -0.002965308415642
        7.861374061141250       -0.000714275459248       -0.006449643431577        0.003335256020472        0.000714275459248        0.006449643598143       -0.003335256020472
        7.982318277466501       -0.000833950393602        0.002385602650116        0.003810044657031        0.000833950393602       -0.002385602656830       -0.003810044657031
        8.103262493791750       -0.000977621666491       -0.002905732121799        0.004370457972781        0.000977621666491        0.002905731737777       -0.004370457972781
        8.224206710117000       -0.001109411044440       -0.001293256441672        0.004853448109494        0.001109411044440        0.001293256324928       -0.004853448109494
        8.345150926442249       -0.001238159260627        0.003042798964864        0.005301113566438        0.001238159260627       -0.003042798793781       -0.005301113566438
        8.466095142767500       -0.001374375969986       -0.004660528379620        0.005759105181695        0.001374375969986        0.004660528339483       -0.005759105181695
        8.587039359092751       -0.001509315599402        0.005461870025563        0.006190270571715        0.001509315599402       -0.005461870024569       -0.006190270571715
        8.707983575418000       -0.001702943343989       -0.001817309207567        0.006836377361907        0.001702943343989        0.001817309647314       -0.006836377361907
        8.828927791743251       -0.001859751480183        0.002313029342186        0.007307818990734        0.001859751480183       -0.002313029130417       -0.007307818990734
        8.949872008068500       -0.002008957281351        0.004896280546904        0.007727086351286        0.002008957281351       -0.004896280820864       -0.007727086351286
        9.070816224393750       -0.002167210714044       -0.001987826096024        0.008159389399857        0.002167210714044        0.001987825966908       -0.008159389399857
        9.191760440718999       -0.002280817623588        0.008807804104913        0.008405270188576        0.002280817623588       -0.008807804107337       -0.008405270188576
        9.312704657044250       -0.002497074259516       -0.000436304056607        0.009007078045387        0.002497074259516        0.000436303661991       -0.009007078045387
        9.433648873369501       -0.002637773972095        0.006308152170356        0.009312396460996        0.002637773972095       -0.006308152409120       -0.009312396460996
        9.554593089694750       -0.002802515265575        0.006626036742606        0.009683142061232        0.002802515265575       -0.006626036380485       -0.009683142061232
        9.675537306020001       -0.002957447475626        0.001177959256858        0.009999894498094        0.002957447475626       -0.001177958985536       -0.009999894498094
        9.796481522345250       -0.003014669991289        0.011832936376837        0.009974384556019        0.003014669991289       -0.011832936385173       -0.009974384556019
        9.917425738670500       -0.003231683697938        0.000917641695581        0.010461475257556        0.003231683697938       -0.000917641436559       -0.010461475257556
       10.038369954995749       -0.003306225871387        0.010136468784868        0.010470217337599        0.003306225871387       -0.010136468586308       -0.010470217337599
       10.159314171321000       -0.003479501704284        0.007734234542226        0.010777840549409        0.003479501704284       -0.007734234930325       -0.010777840549409
       10.280258387646251       -0.003618356279112        0.004368653138952        0.010960757235057        0.003618356279112       -0.004368653466696       -0.010960757235057
       10.401202603971500       -0.003622274257761        0.014118720465943        0.010728479534908        0.003622274257761       -0.014118720429212       -0.010728479534908
       10.522146820296751       -0.003820522216795        0.002151049509120        0.011061392537314        0.003820522216795       -0.002151049607883       -0.011061392537314
       10.643091036622000       -0.003783743935463        0.013397297038764        0.010706083828499        0.003783743935463       -0.013397297157367       -0.010706083828499
       10.764035252947250       -0.003954441548609        0.007908401438895        0.010931905249311        0.003954441548609       -0.007908401112049       -0.010931905249311
       10.884979469272501       -0.004054814580059        0.007153710213141        0.010948411055546        0.004054814580059       -0.007153709924819       -0.010948411055546
       11.005923685597750       -0.004037354601357        0.015370069373046        0.010643901373993        0.004037354601357       -0.015370069437005       -0.010643901373993
       11.126867901923001       -0.004221128836768        0.003271877581037        0.010861674772645        0.004221128836768       -0.003271877593138       -0.010861674772645
       11.247812118248250       -0.004070600659856        0.015912585686885        0.010219186882020        0.004070600659856       -0.015912585643354       -0.010219186882020
       11.368756334573501       -0.004229444676827        0.007284509525178        0.010354765914868        0.004229444676827       -0.007284509729907       -0.010354765914868
       11.489700550898750       -0.004238527588004        0.009403750520805        0.010114941109163        0.004238527588004       -0.009403750691857       -0.010114941109163
       11.610644767224001       -0.004205813159826        0.015319101488247        0.009778306814549        0.004205813159826       -0.015319101425590       -0.009778306814549
       11.731588983549251       -0.004395056593971        0.004069342556695        0.009949414309429        0.004395056593971       -0.004069342518453       -0.009949414309429
       11.852533199874500       -0.004194691797581        0.017578914135755        0.009240276056006        0.004194691797581       -0.017578914141104       -0.009240276056006
       11.973477416199751       -0.004337636824309        0.006269623831655        0.009291782148432        0.004337636824309       -0.006269623754092       -0.009291782148432
       12.094421632525000       -0.004220778556089        0.011288562184729        0.008785834349685        0.004220778556089       -0.011288562160270       -0.008785834349685
       12.215365848850251       -0.004180938028489        0.014118155881478        0.008450157339277        0.004180938028489       -0.014118155907392       -0.008450157339277
       12.336310065175500       -0.004334088727794        0.004403677561358        0.008497968761177        0.004334088727794       -0.004403677537333       -0.008497968761177
       12.457254281500751       -0.004114437893030        0.018086520617125        0.007818913015182        0.004114437893030       -0.018086520618359       -0.007818913015182
       12.578198497826001       -0.004291308252781        0.005047752826969        0.007895860316836        0.004291308252781       -0.005047752825787       -0.007895860316836
       12.699142714151250       -0.004099566970671        0.012966378374373        0.007295179148633        0.004099566970671       -0.012966378293770       -0.007295179148633
       12.820086930476501       -0.004043553088704        0.012189358890344        0.006950533700336        0.004043553088704       -0.012189358918894       -0.006950533700336
       12.941031146801750       -0.004108681340991        0.004646931308424        0.006812904884512        0.004108681340991       -0.004646931451083       -0.006812904884512
       13.061975363127001       -0.003885804457234        0.017577460571447        0.006206494306679        0.003885804457234       -0.017577460574502       -0.006206494306679
       13.182919579452250       -0.004075290049318        0.003437676119765        0.006259728867999        0.004075290049318       -0.003437676117917       -0.006259728867999
       13.303863795777501       -0.003863927470112        0.014078106159987        0.005697443528525        0.003863927470112       -0.014078106276406       -0.005697443528525
       13.424808012102751       -0.003864987694701        0.010046247931782        0.005459987464280        0.003864987694701       -0.010046247867730       -0.005459987464280
