#           time (fs)    |     mu_x (e.angstrom)   |     mu_y (e.angstrom)   |     mu_z (e.angstrom)   |
        0.000000000000000       -0.000000000000000       -0.000000000000000        0.000000000000000
        0.002418884326505        0.000000001726792       -0.000000005812591       -0.000029944249327
        0.004837768653010        0.000000006908056       -0.000000023245677       -0.000059876997396
        0.007256652979515        0.000000015456618       -0.000000052017422       -0.000089327018296
        0.009675537306020        0.000000027396404       -0.000000092189169       -0.000118735605405
        0.012094421632525        0.000000042438791       -0.000000142816535       -0.000147155563817
        0.014513305959030        0.000000060730334       -0.000000204358168       -0.000175474931908
        0.016932190285535        0.000000081672363       -0.000000274841711       -0.000202286057701
        0.019351074612040        0.000000105628296       -0.000000355440229       -0.000228909715222
        0.021769958938545        0.000000131590406       -0.000000442820209       -0.000253500905420
        0.024188843265050        0.000000160225997       -0.000000539161958       -0.000277792304825
        0.026607727591555        0.000000190032250       -0.000000639481316       -0.000299531897538
        0.029026611918060        0.000000222057309       -0.000000747224780       -0.000320836939227
        0.031445496244565        0.000000254233303       -0.000000855522111       -0.000339085451971
        0.033864380571070        0.000000288053500       -0.000000969302327       -0.000356745893950
        0.036283264897575        0.000000320833771       -0.000001079636812       -0.000370869499288
        0.038702149224080        0.000000354561844       -0.000001193103104       -0.000384237032062
        0.041121033550585        0.000000385907120       -0.000001298612550       -0.000393621526537
        0.043539917877090        0.000000417384243       -0.000001404500438       -0.000402072257090
        0.045958802203595        0.000000445008643       -0.000001497492827       -0.000406137266658
        0.048377686530100        0.000000471835964       -0.000001587730148       -0.000409086344059
        0.050796570856605        0.000000493244014       -0.000001659808201       -0.000407299500812
        0.053215455183110        0.000000512824107       -0.000001725654619       -0.000404215609254
        0.055634339509615        0.000000525357186       -0.000001767872092       -0.000396106430379
        0.058053223836120        0.000000534944931       -0.000001800090305       -0.000386525873441
        0.060472108162625        0.000000535836505       -0.000001803137856       -0.000371699074162
        0.062890992489130        0.000000532598630       -0.000001792193971       -0.000355239176833
        0.065309876815635        0.000000519037402       -0.000001746611670       -0.000333387154549
        0.067728761142140        0.000000500119710       -0.000001682901413       -0.000309758717081
        0.070147645468645        0.000000469319591       -0.000001579314183       -0.000280672953947
        0.072566529795150        0.000000431920650       -0.000001453410859       -0.000249691503758
        0.074985414121655        0.000000381196231       -0.000001282782446       -0.000213272649512
        0.077404298448160        0.000000322646107       -0.000001085701886       -0.000174868254045
        0.079823182774665        0.000000249492159       -0.000000839602345       -0.000131134669601
        0.082242067101170        0.000000167334616       -0.000000563079471       -0.000085360093918
        0.084660951427675        0.000000069507949       -0.000000233960623       -0.000034454658986
        0.087079835754180       -0.000000038415640        0.000000129268207        0.000018508323290
        0.089498720080685       -0.000000162813709        0.000000547795307        0.000076313308968
        0.091917604407190       -0.000000298280586        0.000001003710409        0.000136149614453
        0.094336488733695       -0.000000450723031        0.000001516602257        0.000200449577163
        0.096755373060200       -0.000000615047334        0.000002069625678        0.000266708652894
        0.099174257386705       -0.000000796503398        0.000002680143797        0.000336966046958
        0.101593141713210       -0.000000990458471        0.000003332877913        0.000409061949633
        0.104012026039715       -0.000001201320745        0.000004042343510        0.000484607789592
        0.106430910366220       -0.000001425067438        0.000004795329783        0.000561821565498
        0.108849794692725       -0.000001665085949        0.000005602901975        0.000641859226554
        0.111268679019230       -0.000001918108823        0.000006454406306        0.000723343616368
        0.113687563345735       -0.000002186333962        0.000007356890090        0.000806954904028
        0.116106447672240       -0.000002467387238        0.000008302720932        0.000891741358320
        0.118525331998745       -0.000002762123259        0.000009294410712        0.000977894810496
        0.120944216325250       -0.000003069188201        0.000010327775686        0.001064902763226
        0.123363100651755       -0.000003387958876        0.000011400339680        0.001152464110580
        0.125781984978260       -0.000003718214174        0.000012511745871        0.001240512419761
        0.128200869304765       -0.000004057741990        0.000013654156100        0.001328257093285
        0.130619753631270       -0.000004407548461        0.000014831358552        0.001416077520836
        0.133038637957775       -0.000004763748565        0.000016029870409        0.001502705060315
        0.135457522284280       -0.000005128649293        0.000017257872540        0.001588957627692
        0.137876406610785       -0.000005496639110        0.000018496057086        0.001673107811228
        0.140295290937290       -0.000005871375863        0.000019757165859        0.001756397834174
        0.142714175263795       -0.000006245501049        0.000021015997103        0.001836668318008
        0.145133059590300       -0.000006624047527        0.000022289934841        0.001915564893301
        0.147551943916805       -0.000006997924647        0.000023547933244        0.001990530123262
        0.149970828243310       -0.000007373536820        0.000024812006917        0.002063585813184
        0.152389712569815       -0.000007740112792        0.000026045439357        0.002131816944670
        0.154808596896320       -0.000008105396245        0.000027274767113        0.002197588381515
        0.157227481222825       -0.000008457024314        0.000028457902437        0.002257673924341
        0.159646365549330       -0.000008804018196        0.000029625696024        0.002314743038035
        0.162065249875835       -0.000009132549834        0.000030731114236        0.002365309926294
        0.164484134202340       -0.000009452826691        0.000031809014859        0.002412305483416
        0.166903018528845       -0.000009749718538        0.000032807966906        0.002452040258720
        0.169321902855350       -0.000010034498949        0.000033766430950        0.002487659391243
        0.171740787181855       -0.000010290933553        0.000034629244992        0.002515329180834
        0.174159671508360       -0.000010531214212        0.000035437974977        0.002538358577819
        0.176578555834865       -0.000010738233060        0.000036134504021        0.002552831546957
        0.178997440161370       -0.000010924926601        0.000036762919147        0.002562167982456
        0.181416324487875       -0.000011073573620        0.000037263023970        0.002562432943489
        0.183835208814380       -0.000011197658253        0.000037680763665        0.002557102819008
        0.186254093140885       -0.000011279131725        0.000037954824057        0.002542287687411
        0.188672977467390       -0.000011331808454        0.000038132277101        0.002521465277423
        0.191091861793895       -0.000011337619055        0.000038151723747        0.002490854077908
        0.193510746120400       -0.000011310474072        0.000038060574820        0.002453878181989
        0.195929630446905       -0.000011232606535        0.000037798433425        0.002406926325243
        0.198348514773410       -0.000011117776177        0.000037412218309        0.002353315050167
        0.200767399099915       -0.000010948851972        0.000036843657120        0.002289662622758
        0.203186283426420       -0.000010739187509        0.000036138317345        0.002219126042089
        0.205605167752925       -0.000010472625768        0.000035241188811        0.002138608878144
        0.208024052079430       -0.000010161855198        0.000034195616214        0.002051059345195
        0.210442936405935       -0.000009792029095        0.000032950983332        0.001953717678324
        0.212861820732440       -0.000009374913062        0.000031547544861        0.001849277600274
        0.215280705058945       -0.000008897298830        0.000029940182713        0.001735362127395
        0.217699589385450       -0.000008369777818        0.000028165215825        0.001614369043529
        0.220118473711955       -0.000007781093599        0.000026184078920        0.001484344268251
        0.222537358038460       -0.000007140423588        0.000024028348127        0.001347353113124
        0.224956242364965       -0.000006438755438        0.000021666994445        0.001201897874643
        0.227375126691470       -0.000005683629320        0.000019126099930        0.001049680346856
        0.229794011017975       -0.000004868541789        0.000016383063025        0.000889685480351
        0.232212895344480       -0.000003999194017        0.000013457792768        0.000723226479075
        0.234631779670985       -0.000003071822914        0.000010336893911        0.000549789594694
        0.237050663997490       -0.000002090115049        0.000007033511487        0.000370280728348
        0.239469548323995       -0.000001053240249        0.000003544104574        0.000184698137478
        0.241888432650500        0.000000037274695       -0.000000125434391       -0.000006471648524
        0.244307316977005        0.000001179178303       -0.000003968291515       -0.000202715789512
        0.246726201303510        0.000002373214476       -0.000007986200233       -0.000403972376944
        0.249145085630015        0.000003613949485       -0.000012161653334       -0.000609219594656
        0.251563969956520        0.000004904471263       -0.000016504257003       -0.000818818518564
        0.253982854283025        0.000006236114912       -0.000020985646085       -0.001031252072097
        0.256401738609530        0.000007614345498       -0.000025623410969       -0.001247295839446
        0.258820622936035        0.000009027272389       -0.000030378346861       -0.001464959104068
        0.261239507262540        0.000010482728657       -0.000035275997684       -0.001685416798579
        0.263658391589045        0.000011965659504       -0.000040266526196       -0.001906233761451
        0.266077275915550        0.000013486213398       -0.000045383252851       -0.002128962694084
        0.268496160242055        0.000015026289873       -0.000050566106718       -0.002350760308317
        0.270915044568560        0.000016598256235       -0.000055855859881       -0.002573529442102
        0.273333928895065        0.000018181141565       -0.000061182797308       -0.002794061557422
        0.275752813221570        0.000019789391858       -0.000066594671108       -0.003014576408417
        0.278171697548075        0.000021399396415       -0.000072012898342       -0.003231548972734
        0.280590581874580        0.000023027497362       -0.000077491596811       -0.003447477666278
        0.283009466201085        0.000024647728060       -0.000082944270750       -0.003658574872843
        0.285428350527590        0.000026278103814       -0.000088430653369       -0.003867575016243
        0.287847234854095        0.000027890635731       -0.000093857458894       -0.004070486056180
        0.290266119180600        0.000029504751780       -0.000099289159219       -0.004270232075897
        0.292685003507105        0.000031090820048       -0.000104626954627       -0.004462678145905
        0.295103887833610        0.000032669386694       -0.000109939064682       -0.004650888729298
        0.297522772160115        0.000034209596326       -0.000115122587428       -0.004830649939410
        0.299941656486620        0.000035732789201       -0.000120248399405       -0.005005115218325
        0.302360540813125        0.000037207340209       -0.000125211023248       -0.005170057044832
        0.304779425139630        0.000038655035012       -0.000130082818987       -0.005328665160850
        0.307198309466135        0.000040043959881       -0.000134757352693       -0.005476764094911
        0.309617193792640        0.000041395978207       -0.000139307230496       -0.005617526793774
        0.312036078119145        0.000042679388552       -0.000143626747425       -0.005746894846628
        0.314454962445650        0.000043915751489       -0.000147787475005       -0.005867971762249
        0.316873846772155        0.000045074090511       -0.000151686162257       -0.005976879503349
        0.319292731098660        0.000046175276485       -0.000155392044043       -0.006076600809534
        0.321711615425165        0.000047189573714       -0.000158806059346       -0.006163498633867
        0.324130499751670        0.000048136776952       -0.000161993805924       -0.006240385764317
        0.326549384078175        0.000048988901671       -0.000164862130159       -0.006303923109596
        0.328968268404680        0.000049764287580       -0.000167471717447       -0.006356707273451
        0.331387152731185        0.000050437197277       -0.000169736990584       -0.006395749536181
        0.333806037057690        0.000051024151042       -0.000171712496283       -0.006423387786918
        0.336224921384195        0.000051502131294       -0.000173321824580       -0.006437030718254
        0.338643805710700        0.000051885496025       -0.000174612229627       -0.006438719367840
        0.341062690037205        0.000052154388272       -0.000175517952226       -0.006426300765103
        0.343481574363710        0.000052320689183       -0.000176077895365       -0.006401485972125
        0.345900458690215        0.000052368102999       -0.000176238298876       -0.006362594519358
        0.348319343016720        0.000052305754236       -0.000176028772984       -0.006310979919163
        0.350738227343225        0.000052121260910       -0.000175408743307       -0.006245461069536
        0.353157111669730        0.000051820751886       -0.000174397722903       -0.006167012355379
        0.355575995996235        0.000051396056364       -0.000172969324354       -0.006074971189089
        0.357994880322740        0.000050850114736       -0.000171132314615       -0.005969917595393
        0.360413764649245        0.000050179203277       -0.000168875287429       -0.005851718628264
        0.362832648975750        0.000049382932018       -0.000166195786137       -0.005720551309715
        0.365251533302255        0.000048462193252       -0.000163097954546       -0.005576815269380
        0.367670417628760        0.000047413179655       -0.000159567819615       -0.005420282612007
        0.370089301955265        0.000046241497118       -0.000155625403986       -0.005251880239770
        0.372508186281770        0.000044939891947       -0.000151245120572       -0.005070980181836
        0.374927070608275        0.000043518706579       -0.000146462948462       -0.004879023158352
        0.377345954934780        0.000041967272042       -0.000141241791134       -0.004674992639134
        0.379764839261285        0.000040300613571       -0.000135633403610       -0.004460821770443
        0.382183723587790        0.000038504739228       -0.000129589490578       -0.004235123463236
        0.384602607914295        0.000036599225820       -0.000123177141676       -0.004000294299789
        0.387021492240800        0.000034566912037       -0.000116337379692       -0.003754600821166
        0.389440376567305        0.000032431718058       -0.000109151928485       -0.003500866915791
        0.391859260893810        0.000030173527069       -0.000101551848649       -0.003237042735804
        0.394278145220315        0.000027820319293       -0.000093632544974       -0.002966336776598
        0.396697029546820        0.000025349294435       -0.000085316031306       -0.002686418083650
        0.399115913873325        0.000022792137475       -0.000076710197808       -0.002400831164176
        0.401534798199830        0.000020123691641       -0.000067729112053       -0.002107003963470
        0.403953682526335        0.000017378923857       -0.000058491726719       -0.001808763274887
        0.406372566852840        0.000014530698638       -0.000048905434404       -0.001503340020179
        0.408791451179345        0.000011616780211       -0.000039098619270       -0.001194785267911
        0.411210335505850        0.000008608477677       -0.000028973423506       -0.000880180342589
        0.413629219832355        0.000005545812931       -0.000018665846585       -0.000563739203467
        0.416048104158860        0.000002399002362       -0.000008074337466       -0.000242443578447
        0.418466988485365       -0.000000790261180        0.000002659463763        0.000079393477121
        0.420885872811870       -0.000004052358900        0.000013639135051        0.000404838074577
        0.423304757138375       -0.000007344551935        0.000024719499119        0.000729543267076
        0.425723641464880       -0.000010697299245        0.000036004411300        0.001056570337879
        0.428142525791385       -0.000014067469467        0.000047347356733        0.001381604042552
        0.430561410117890       -0.000017485063090        0.000058850663413        0.001707648121215
        0.432980294444395       -0.000020907228003        0.000070368739957        0.002030483989883
        0.435399178770900       -0.000024362962409        0.000082000556728        0.002353005946549
        0.437818063097405       -0.000027810372633        0.000093603731908        0.002671155376446
        0.440236947423910       -0.000031276912344        0.000105272053152        0.002987666903990
        0.442655831750415       -0.000034722321783        0.000116868621848        0.003298702557547
        0.445074716076920       -0.000038171978726        0.000128480254497        0.003606789549451
        0.447493600403425       -0.000041587917845        0.000139977758977        0.003908367648021
        0.449912484729930       -0.000044992929937        0.000151439260344        0.004205712193996
        0.452331369056435       -0.000048351978450        0.000162745408178        0.004495593331356
        0.454750253382940       -0.000051684785615        0.000173964015050        0.004779994082733
        0.457169137709445       -0.000054959840879        0.000184987582510        0.005056062330471
        0.459588022035950       -0.000058193354777        0.000195872118981        0.005325453015716
        0.462006906362455       -0.000061357892347        0.000206523827936        0.005585733121834
        0.464425790688960       -0.000064465756246        0.000216985579964        0.005838199023700
        0.466844675015465       -0.000067494079182        0.000227178936841        0.006080871537489
        0.469263559341970       -0.000070450914597        0.000237132482181        0.006314663776766
        0.471682443668475       -0.000073318388367        0.000246784568337        0.006538077966682
