#           time (fs)    |     mu_x (e.angstrom)   |     mu_y (e.angstrom)   |     mu_z (e.angstrom)   |
        0.000000000000000       -0.000000000000000       -0.000000000000000        0.000000000000000
        0.002418884326505       -0.000000000681777        0.000000001140152        0.000005907179317
        0.004837768653010       -0.000000002717907        0.000000004550678        0.000011776574585
        0.007256652979515       -0.000000006076387        0.000000010169778        0.000017549587490
        0.009675537306020       -0.000000022435670        0.000000037564751        0.000048598730508
        0.012094421632525       -0.000000045842678        0.000000076748998        0.000079433436309
        0.014513305959030       -0.000000111086129        0.000000185995007        0.000160393202860
        0.016932190285535       -0.000000194704053        0.000000325989572        0.000240944697083
        0.019351074612040       -0.000000365325816        0.000000611676530        0.000395548070989
        0.021769958938545       -0.000000570919377        0.000000955896105        0.000549421632975
        0.024188843265050       -0.000000923634847        0.000001546471055        0.000799909319902
        0.026607727591555       -0.000001332699503        0.000002231366298        0.001049168346512
        0.029026611918060       -0.000001962080657        0.000003285174374        0.001415818781790
        0.031445496244565       -0.000002673327831        0.000004476021673        0.001780518160738
        0.033864380571070       -0.000003688837652        0.000006176341254        0.002281210039946
        0.036283264897575       -0.000004815091919        0.000008062048347        0.002778963052569
        0.038702149224080       -0.000006337583961        0.000010611231256        0.003428778035147
        0.041121033550585       -0.000008002161322        0.000013398274677        0.004074364382955
        0.043539917877090       -0.000010159923416        0.000017011123945        0.004885237013613
        0.045958802203595       -0.000012492572430        0.000020916755557        0.005690258939671
        0.048377686530100       -0.000015417004925        0.000025813292442        0.006670680105372
        0.050796570856605       -0.000018549503622        0.000031058170890        0.007643272836453
        0.053215455183110       -0.000022370532269        0.000037455958990        0.008798052236275
        0.055634339509615       -0.000026432043053        0.000044256377438        0.009942654113248
        0.058053223836120       -0.000031273374315        0.000052362584513        0.011272746274936
        0.060472108162625       -0.000036385666351        0.000060922478046        0.012589932978225
        0.062890992489130       -0.000042359998453        0.000070925865201        0.014092330321794
        0.065309876815635       -0.000048632652070        0.000081428789513        0.015578716549773
        0.067728761142140       -0.000055836958230        0.000093491822457        0.017246411891074
        0.070147645468645       -0.000063362668508        0.000106093099597        0.018894622728666
        0.072566529795150       -0.000071873669520        0.000120344377564        0.020716642452562
        0.074985414121655       -0.000080723766369        0.000135163604472        0.022515355494008
        0.077404298448160       -0.000090593707805        0.000151690798978        0.024476863428269
        0.079823182774665       -0.000100814007405        0.000168804910170        0.026410921513241
        0.082242067101170       -0.000112066852299        0.000187648398136        0.028493392322539
        0.084660951427675       -0.000123673949761        0.000207085465290        0.030543985530915
        0.087079835754180       -0.000136302090670        0.000228232829180        0.032725445248464
        0.089498720080685       -0.000149280196235        0.000249966767604        0.034870359599572
        0.091917604407190       -0.000163241781179        0.000273348319470        0.037125689745388
        0.094336488733695       -0.000177540192342        0.000297294654745        0.039339618885670
        0.096755373060200       -0.000192757147497        0.000322780121566        0.041640919508067
        0.099174257386705       -0.000208288437274        0.000348792949414        0.043895834569598
        0.101593141713210       -0.000224645255571        0.000376189434395        0.046212840511917
        0.104012026039715       -0.000241284242967        0.000404059683353        0.048478412304234
        0.106430910366220       -0.000258627592312        0.000433110992301        0.050778956061845
        0.108849794692725       -0.000276211145195        0.000462566072640        0.053023022840260
        0.111268679019230       -0.000294350333097        0.000492953466699        0.055273536550791
        0.113687563345735       -0.000312678036459        0.000523658360729        0.057462609802410
        0.116106447672240       -0.000331386349875        0.000555002767221        0.059628658219504
        0.118525331998745       -0.000350222054227        0.000586562586233        0.061728458237291
        0.120944216325250       -0.000369238974741        0.000618428268743        0.063775293986353
        0.123363100651755       -0.000388313220565        0.000650392270987        0.065751306472374
        0.125781984978260       -0.000407347496039        0.000682291928721        0.067644438483954
        0.128200869304765       -0.000426360791197        0.000714158961659        0.069462483043007
        0.130619753631270       -0.000445094326178        0.000745560197203        0.071168248810836
        0.133038637957775       -0.000463721234376        0.000776785496376        0.072795049969554
        0.135457522284280       -0.000481813743249        0.000807118560834        0.074281182187895
        0.137876406610785       -0.000499707723454        0.000837121807721        0.075684933503760
        0.140295290937290       -0.000516802072913        0.000865788503487        0.076921111702149
        0.142714175263795       -0.000533600992495        0.000893963016255        0.078072023610861
        0.145133059590300       -0.000549329143860        0.000920346610888        0.079030401620483
        0.147551943916805       -0.000564661372383        0.000946069515565        0.079901223905628
        0.149970828243310       -0.000578650819827        0.000969545495974        0.080556924355436
        0.152389712569815       -0.000592141796392        0.000992188701766        0.081123434506145
        0.154808596896320       -0.000604022384649        0.001012136176614        0.081455002051273
        0.157227481222825       -0.000615301539572        0.001031077958402        0.081696451294647
        0.159646365549330       -0.000624712534411        0.001046891498802        0.081686256916212
        0.162065249875835       -0.000633420436185        0.001061528472668        0.081585766363039
        0.164484134202340       -0.000640017713049        0.001072630167201        0.081220355836805
        0.166903018528845       -0.000645813304167        0.001082389431536        0.080765255951422
        0.169321902855350       -0.000649276515042        0.001088240921734        0.080035636451560
        0.171740787181855       -0.000651844295446        0.001092592127422        0.079217743938190
        0.174159671508360       -0.000651883871436        0.001092706384344        0.078119603708721
        0.176578555834865       -0.000650940886273        0.001091173492869        0.076935430884277
        0.178997440161370       -0.000647304733424        0.001085126094506        0.075469287960615
        0.181416324487875       -0.000642607222428        0.001077298582861        0.073920180743788
        0.183835208814380       -0.000635086971248        0.001064738255829        0.072091457824902
        0.186254093140885       -0.000626436540482        0.001050281531811        0.070183659597751
        0.188672977467390       -0.000614873215155        0.001030939729296        0.068002683339320
        0.191091861793895       -0.000602122397945        0.001009604530229        0.065747323114073
        0.193510746120400       -0.000586411379451        0.000983303831235        0.063229247317250
        0.195929630446905       -0.000569468462084        0.000954934393244        0.060642251849777
        0.198348514773410       -0.000549563630166        0.000921595525802        0.057806905240321
        0.200767399099915       -0.000528396629098        0.000886136329362        0.054908835954167
        0.203186283426420       -0.000504313581051        0.000845783642195        0.051780496463814
        0.205605167752925       -0.000478953271940        0.000803284562406        0.048596313265541
        0.208024052079430       -0.000450771531382        0.000756049795292        0.045203411921933
        0.210442936405935       -0.000421313445852        0.000706669512014        0.041762167180061
        0.212861820732440       -0.000389177591739        0.000652793744353        0.038136925863937
        0.215280705058945       -0.000355782915288        0.000596801297355        0.034471392970381
        0.217699589385450       -0.000319902580124        0.000536634986664        0.030649401389619
        0.220118473711955       -0.000282797903682        0.000474409393920        0.026795643404786
        0.222537358038460       -0.000243446609933        0.000408410450666        0.022815381645714
        0.224956242364965       -0.000202922507942        0.000340438343201        0.018812266527793
        0.227375126691470       -0.000160435332712        0.000269168224844        0.014714580457310
        0.229794011017975       -0.000116843761923        0.000196039488495        0.010603250275255
        0.232212895344480       -0.000071613841660        0.000120157333195        0.006430787866645
        0.234631779670985       -0.000025364376827        0.000042558785581        0.002254090179011
        0.237050663997490        0.000022161714159       -0.000037186355983       -0.001949292494550
        0.239469548323995        0.000070606769376       -0.000118479186779       -0.006147402260546
        0.241888432650500        0.000119934710889       -0.000201257925371       -0.010337256090084
        0.244307316977005        0.000170066277452       -0.000285390816199       -0.014512331914948
        0.246726201303510        0.000220660688742       -0.000370304671102       -0.018644241222290
        0.249145085630015        0.000271929848386       -0.000456356372517       -0.022751973723622
        0.251563969956520        0.000323221869182       -0.000542450524245       -0.026782184252563
        0.253982854283025        0.000375047680887       -0.000629445907430       -0.030779027965454
        0.256401738609530        0.000426443331218       -0.000715723256391       -0.034665066458878
        0.258820622936035        0.000478221406627       -0.000802647731145       -0.038508857228554
        0.261239507262540        0.000529110590999       -0.000888084033474       -0.042210132755951
        0.263658391589045        0.000580222290100       -0.000973899001658       -0.045860685431023
        0.266077275915550        0.000629988296167       -0.001057458828209       -0.049339062896575
        0.268496160242055        0.000679810389447       -0.001141117912454       -0.052758739800667
        0.270915044568560        0.000727839718310       -0.001221771156021       -0.055979076486346
        0.273333928895065        0.000775754349043       -0.001302236923397       -0.059133317593093
        0.275752813221570        0.000821446704162       -0.001378975563201       -0.062063954167255
        0.278171697548075        0.000866851474812       -0.001455236448393       -0.064921760501409
        0.280590581874580        0.000909629729373       -0.001527091270012       -0.067534958641816
        0.283009466201085        0.000951947729581       -0.001598178392667       -0.070069321167754
        0.285428350527590        0.000991267688397       -0.001664235356271       -0.072341640796778
        0.287847234854095        0.001029957278891       -0.001729238922946       -0.074529907922713
        0.290266119180600        0.001065317050590       -0.001788654873073       -0.076442518017832
        0.292685003507105        0.001099881217755       -0.001846739855658       -0.078266695825303
        0.295103887833610        0.001130830016291       -0.001898757271916       -0.079805613833748
        0.297522772160115        0.001160825116187       -0.001949178061745       -0.081252594221197
        0.299941656486620        0.001186971317600       -0.001993138561775       -0.082408850256333
        0.302360540813125        0.001212015035855       -0.002035252311678       -0.083470563345145
        0.304779425139630        0.001233033326639       -0.002070608635246       -0.084240286555064
        0.307198309466135        0.001252811691873       -0.002103887020543       -0.084913774927488
        0.309617193792640        0.001268449159173       -0.002130213246612       -0.085298200683662
        0.312036078119145        0.001282722462231       -0.002154252400108       -0.085585614284842
        0.314454962445650        0.001292803493164       -0.002171252176770       -0.085591012120453
        0.316873846772155        0.001301410982220       -0.002185780581944       -0.085499523941269
        0.319292731098660        0.001305840859611       -0.002193293181792       -0.085137047454548
        0.321711615425165        0.001308704101878       -0.002198177342097       -0.084678691397777
        0.324130499751670        0.001307471206278       -0.002196181392432       -0.083964152605095
        0.326549384078175        0.001304596030247       -0.002191429132396       -0.083155586204348
        0.328968268404680        0.001297772582856       -0.002180043910062       -0.082109158061047
        0.331387152731185        0.001289249540269       -0.002165805205148       -0.080971353950267
        0.333806037057690        0.001276990847866       -0.002145289429073       -0.079617205934944
        0.336224921384195        0.001262994161548       -0.002121854705291       -0.078175077136618
        0.338643805710700        0.001245536352237       -0.002092602805259       -0.076540949898238
        0.341062690037205        0.001226321343967       -0.002060398695650       -0.074822915092497
        0.343481574363710        0.001203977611005       -0.002022934582687       -0.072939641171718
        0.345900458690215        0.001179876632315       -0.001982517175161       -0.070977137108446
        0.348319343016720        0.001153032031879       -0.001937485586351       -0.068878115648305
        0.350738227343225        0.001124448949417       -0.001889531245155       -0.066705064753724
        0.353157111669730        0.001093553826477       -0.001837686782838       -0.064425698894977
        0.355575995996235        0.001060957141895       -0.001782980673297       -0.062077940887517
        0.357994880322740        0.001026519285679       -0.001725174704547       -0.059655047186560
        0.360413764649245        0.000990433997306       -0.001664597196691       -0.057169744140140
        0.362832648975750        0.000953009653838       -0.001601762822873       -0.054640943840037
        0.365251533302255        0.000914007993162       -0.001536273993288       -0.052055968603805
        0.367670417628760        0.000874191886288       -0.001469409340358       -0.049459070921063
        0.370089301955265        0.000832883085984       -0.001400031832130       -0.046812389112704
        0.372508186281770        0.000791297619868       -0.001330181949360       -0.044184776865585
        0.374927070608275        0.000748316891239       -0.001257982486415       -0.041513832792261
        0.377345954934780        0.000705600725926       -0.001186220173535       -0.038891860684693
        0.379764839261285        0.000661597641796       -0.001112290057201       -0.036232977505991
        0.382183723587790        0.000618393848741       -0.001039695966705       -0.033651393191486
        0.384602607914295        0.000574020342514       -0.000965130908148       -0.031039197419816
        0.387021492240800        0.000530964358590       -0.000892773290119       -0.028530595102280
        0.389440376567305        0.000486862561151       -0.000818652951695       -0.025997475138739
        0.391859260893810        0.000444570167231       -0.000747567422274       -0.023591790925391
        0.394278145220315        0.000401360310205       -0.000674935053349       -0.021167398757712
        0.396697029546820        0.000360415863818       -0.000606104774496       -0.018891456270835
        0.399115913873325        0.000318684480273       -0.000535947332347       -0.016602260722822
        0.401534798199830        0.000279629630821       -0.000470283989562       -0.014479374612920
        0.403953682526335        0.000239918282642       -0.000403513133451       -0.012348273643985
        0.406372566852840        0.000203241392228       -0.000341839089387       -0.010397917642078
        0.408791451179345        0.000166036147088       -0.000279273425629       -0.008443916166894
        0.411210335505850        0.000132162630166       -0.000222305411259       -0.006681461186526
        0.413629219832355        0.000097884500292       -0.000164654349214       -0.004919419737750
        0.416048104158860        0.000067168281265       -0.000112989030478       -0.003355946309314
        0.418466988485365        0.000036164821232       -0.000060838584196       -0.001796404622935
        0.420885872811870        0.000008881090946       -0.000014940311370       -0.000438592638055
        0.423304757138375       -0.000018580667212        0.000031258850533        0.000912329074332
        0.425723641464880       -0.000042241236966        0.000071067840574        0.002062231686703
        0.428142525791385       -0.000065980355687        0.000111009832605        0.003202852375640
        0.430561410117890       -0.000085915805793        0.000144556533870        0.004146981800509
        0.432980294444395       -0.000105841391170        0.000178086958640        0.005080000104026
        0.435399178770900       -0.000122040971090        0.000205351853499        0.005824750756930
        0.437818063097405       -0.000138154398185        0.000232471602352        0.006557107764863
        0.440236947423910       -0.000150699288729        0.000253589930861        0.007112930862636
        0.442655831750415       -0.000163094632779        0.000274455960845        0.007655597812802
        0.445074716076920       -0.000172156852521        0.000289715928266        0.008036728186419
        0.447493600403425       -0.000181019488372        0.000304638951304        0.008404423071212
        0.449912484729930       -0.000186858973863        0.000314476856653        0.008628539233174
        0.452331369056435       -0.000192462339627        0.000323915933638        0.008839377503558
        0.454750253382940       -0.000195422223568        0.000328908259508        0.008927201112892
        0.457169137709445       -0.000198122778673        0.000333462349718        0.009002286778948
        0.459588022035950       -0.000198622924166        0.000334314910917        0.008977128666505
        0.462006906362455       -0.000198853366046        0.000334711484597        0.008940093093519
        0.464425790688960       -0.000197382248503        0.000332245789456        0.008827353904611
        0.466844675015465       -0.000195643085570        0.000329326667638        0.008703850477477
        0.469263559341970       -0.000192748146056        0.000324463700148        0.008530484746559
        0.471682443668475       -0.000189597756783        0.000319168339939        0.008347648312139
