#     time (fs)  |  E_x (eV/ang)  | E_y (eV/ang) | E_z (eV/ang)
     0.00000000     0.00000000     0.00000000     0.74832271
     0.00241888     0.02048333     0.02048333     0.74818249
     0.00483777     0.04095899     0.04095899     0.74776187
     0.00725665     0.06141930     0.06141930     0.74706101
     0.00967554     0.08185659     0.08185659     0.74608017
     0.01209442     0.10226320     0.10226320     0.74481973
     0.01451331     0.12263148     0.12263148     0.74328014
     0.01693219     0.14295381     0.14295381     0.74146200
     0.01935107     0.16322257     0.16322257     0.73936598
     0.02176996     0.18343015     0.18343015     0.73699287
     0.02418884     0.20356898     0.20356898     0.73434356
     0.02660773     0.22363153     0.22363153     0.73141903
     0.02902661     0.24361027     0.24361027     0.72822039
     0.03144550     0.26349770     0.26349770     0.72474884
     0.03386438     0.28328639     0.28328639     0.72100567
     0.03628326     0.30296891     0.30296891     0.71699229
     0.03870215     0.32253788     0.32253788     0.71271020
     0.04112103     0.34198598     0.34198598     0.70816101
     0.04353992     0.36130591     0.36130591     0.70334642
     0.04595880     0.38049044     0.38049044     0.69826824
     0.04837769     0.39953237     0.39953237     0.69292836
     0.05079657     0.41842456     0.41842456     0.68732880
     0.05321546     0.43715994     0.43715994     0.68147165
     0.05563434     0.45573149     0.45573149     0.67535910
     0.05805322     0.47413224     0.47413224     0.66899345
     0.06047211     0.49235531     0.49235531     0.66237708
     0.06289099     0.51039385     0.51039385     0.65551247
     0.06530988     0.52824111     0.52824111     0.64840219
     0.06772876     0.54589040     0.54589040     0.64104891
     0.07014765     0.56333511     0.56333511     0.63345539
     0.07256653     0.58056870     0.58056870     0.62562446
     0.07498541     0.59758470     0.59758470     0.61755907
     0.07740430     0.61437675     0.61437675     0.60926224
     0.07982318     0.63093855     0.63093855     0.60073707
     0.08224207     0.64726390     0.64726390     0.59198676
     0.08466095     0.66334666     0.66334666     0.58301460
     0.08707984     0.67918083     0.67918083     0.57382394
     0.08949872     0.69476046     0.69476046     0.56441822
     0.09191760     0.71007971     0.71007971     0.55480098
     0.09433649     0.72513284     0.72513284     0.54497582
     0.09675537     0.73991422     0.73991422     0.53494641
     0.09917426     0.75441830     0.75441830     0.52471652
     0.10159314     0.76863964     0.76863964     0.51428999
     0.10401203     0.78257293     0.78257293     0.50367071
     0.10643091     0.79621292     0.79621292     0.49286268
     0.10884979     0.80955452     0.80955452     0.48186993
     0.11126868     0.82259273     0.82259273     0.47069659
     0.11368756     0.83532264     0.83532264     0.45934685
     0.11610645     0.84773951     0.84773951     0.44782496
     0.11852533     0.85983867     0.85983867     0.43613524
     0.12094422     0.87161558     0.87161558     0.42428206
     0.12336310     0.88306584     0.88306584     0.41226988
     0.12578198     0.89418515     0.89418515     0.40010320
     0.12820087     0.90496935     0.90496935     0.38778656
     0.13061975     0.91541440     0.91541440     0.37532460
     0.13303864     0.92551637     0.92551637     0.36272197
     0.13545752     0.93527148     0.93527148     0.34998341
     0.13787641     0.94467609     0.94467609     0.33711368
     0.14029529     0.95372666     0.95372666     0.32411761
     0.14271418     0.96241979     0.96241979     0.31100008
     0.14513306     0.97075225     0.97075225     0.29776599
     0.14755194     0.97872089     0.97872089     0.28442030
     0.14997083     0.98632274     0.98632274     0.27096802
     0.15238971     0.99355494     0.99355494     0.25741420
     0.15480860     1.00041479     1.00041479     0.24376390
     0.15722748     1.00689971     1.00689971     0.23002224
     0.15964637     1.01300728     1.01300728     0.21619438
     0.16206525     1.01873520     1.01873520     0.20228550
     0.16448413     1.02408133     1.02408133     0.18830081
     0.16690302     1.02904366     1.02904366     0.17424554
     0.16932190     1.03362034     1.03362034     0.16012498
     0.17174079     1.03780965     1.03780965     0.14594440
     0.17415967     1.04161001     1.04161001     0.13170913
     0.17657856     1.04502002     1.04502002     0.11742450
     0.17899744     1.04803838     1.04803838     0.10309586
     0.18141632     1.05066396     1.05066396     0.08872859
     0.18383521     1.05289579     1.05289579     0.07432806
     0.18625409     1.05473303     1.05473303     0.05989967
     0.18867298     1.05617498     1.05617498     0.04544884
     0.19109186     1.05722111     1.05722111     0.03098097
     0.19351075     1.05787102     1.05787102     0.01650149
     0.19592963     1.05812448     1.05812448     0.00201583
     0.19834851     1.05798138     1.05798138    -0.01247058
     0.20076740     1.05744178     1.05744178    -0.02695233
     0.20318628     1.05650588     1.05650588    -0.04142397
     0.20560517     1.05517404     1.05517404    -0.05588009
     0.20802405     1.05344675     1.05344675    -0.07031526
     0.21044294     1.05132465     1.05132465    -0.08472409
     0.21286182     1.04880856     1.04880856    -0.09910116
     0.21528071     1.04589940     1.04589940    -0.11344109
     0.21769959     1.04259826     1.04259826    -0.12773851
     0.22011847     1.03890640     1.03890640    -0.14198805
     0.22253736     1.03482518     1.03482518    -0.15618438
     0.22495624     1.03035614     1.03035614    -0.17032218
     0.22737513     1.02550095     1.02550095    -0.18439615
     0.22979401     1.02026143     1.02026143    -0.19840101
     0.23221290     1.01463955     1.01463955    -0.21233151
     0.23463178     1.00863742     1.00863742    -0.22618244
     0.23705066     1.00225727     1.00225727    -0.23994861
     0.23946955     0.99550151     0.99550151    -0.25362484
     0.24188843     0.98837267     0.98837267    -0.26720603
     0.24430732     0.98087341     0.98087341    -0.28068708
     0.24672620     0.97300655     0.97300655    -0.29406293
     0.24914509     0.96477504     0.96477504    -0.30732858
     0.25156397     0.95618196     0.95618196    -0.32047905
     0.25398285     0.94723052     0.94723052    -0.33350941
     0.25640174     0.93792410     0.93792410    -0.34641478
     0.25882062     0.92826617     0.92826617    -0.35919033
     0.26123951     0.91826035     0.91826035    -0.37183126
     0.26365839     0.90791039     0.90791039    -0.38433284
     0.26607728     0.89722018     0.89722018    -0.39669039
     0.26849616     0.88619372     0.88619372    -0.40889927
     0.27091504     0.87483513     0.87483513    -0.42095490
     0.27333393     0.86314869     0.86314869    -0.43285277
     0.27575281     0.85113876     0.85113876    -0.44458843
     0.27817170     0.83880985     0.83880985    -0.45615746
     0.28059058     0.82616657     0.82616657    -0.46755554
     0.28300947     0.81321368     0.81321368    -0.47877839
     0.28542835     0.79995602     0.79995602    -0.48982181
     0.28784723     0.78639855     0.78639855    -0.50068167
     0.29026612     0.77254637     0.77254637    -0.51135388
     0.29268500     0.75840466     0.75840466    -0.52183445
     0.29510389     0.74397873     0.74397873    -0.53211945
     0.29752277     0.72927397     0.72927397    -0.54220503
     0.29994166     0.71429590     0.71429590    -0.55208740
     0.30236054     0.69905014     0.69905014    -0.56176287
     0.30477943     0.68354239     0.68354239    -0.57122781
     0.30719831     0.66777847     0.66777847    -0.58047867
     0.30961719     0.65176428     0.65176428    -0.58951198
     0.31203608     0.63550584     0.63550584    -0.59832437
     0.31445496     0.61900922     0.61900922    -0.60691251
     0.31687385     0.60228062     0.60228062    -0.61527321
     0.31929273     0.58532630     0.58532630    -0.62340331
     0.32171162     0.56815262     0.56815262    -0.63129979
     0.32413050     0.55076602     0.55076602    -0.63895967
     0.32654938     0.53317300     0.53317300    -0.64638009
     0.32896827     0.51538016     0.51538016    -0.65355827
     0.33138715     0.49739418     0.49739418    -0.66049151
     0.33380604     0.47922178     0.47922178    -0.66717722
     0.33622492     0.46086979     0.46086979    -0.67361288
     0.33864381     0.44234508     0.44234508    -0.67979610
     0.34106269     0.42365459     0.42365459    -0.68572456
     0.34348157     0.40480533     0.40480533    -0.69139602
     0.34590046     0.38580435     0.38580435    -0.69680837
     0.34831934     0.36665879     0.36665879    -0.70195957
     0.35073823     0.34737582     0.34737582    -0.70684770
     0.35315711     0.32796266     0.32796266    -0.71147093
     0.35557600     0.30842659     0.30842659    -0.71582752
     0.35799488     0.28877493     0.28877493    -0.71991583
     0.36041376     0.26901505     0.26901505    -0.72373435
     0.36283265     0.24915435     0.24915435    -0.72728163
     0.36525153     0.22920027     0.22920027    -0.73055634
     0.36767042     0.20916029     0.20916029    -0.73355727
     0.37008930     0.18904193     0.18904193    -0.73628327
     0.37250819     0.16885272     0.16885272    -0.73873335
     0.37492707     0.14860023     0.14860023    -0.74090656
     0.37734595     0.12829205     0.12829205    -0.74280211
     0.37976484     0.10793578     0.10793578    -0.74441928
     0.38218372     0.08753907     0.08753907    -0.74575745
     0.38460261     0.06710955     0.06710955    -0.74681615
     0.38702149     0.04665488     0.04665488    -0.74759495
     0.38944038     0.02618272     0.02618272    -0.74809359
     0.39185926     0.00570076     0.00570076    -0.74831185
     0.39427815    -0.01478335    -0.01478335    -0.74824968
     0.39669703    -0.03526191    -0.03526191    -0.74790708
     0.39911591    -0.05572726    -0.05572726    -0.74728418
     0.40153480    -0.07617173    -0.07617173    -0.74638123
     0.40395368    -0.09658765    -0.09658765    -0.74519856
     0.40637257    -0.11696736    -0.11696736    -0.74373660
     0.40879145    -0.13730325    -0.13730325    -0.74199592
     0.41121034    -0.15758767    -0.15758767    -0.73997716
     0.41362922    -0.17781304    -0.17781304    -0.73768108
     0.41604810    -0.19797177    -0.19797177    -0.73510853
     0.41846699    -0.21805630    -0.21805630    -0.73226049
     0.42088587    -0.23805912    -0.23805912    -0.72913802
     0.42330476    -0.25797271    -0.25797271    -0.72574229
     0.42572364    -0.27778963    -0.27778963    -0.72207457
     0.42814253    -0.29750243    -0.29750243    -0.71813624
     0.43056141    -0.31710375    -0.31710375    -0.71392878
     0.43298029    -0.33658622    -0.33658622    -0.70945376
     0.43539918    -0.35594255    -0.35594255    -0.70471285
     0.43781806    -0.37516548    -0.37516548    -0.69970784
     0.44023695    -0.39424781    -0.39424781    -0.69444059
     0.44265583    -0.41318239    -0.41318239    -0.68891310
     0.44507472    -0.43196212    -0.43196212    -0.68312741
     0.44749360    -0.45057996    -0.45057996    -0.67708572
     0.44991248    -0.46902894    -0.46902894    -0.67079027
     0.45233137    -0.48730214    -0.48730214    -0.66424342
     0.45475025    -0.50539272    -0.50539272    -0.65744764
     0.45716914    -0.52329389    -0.52329389    -0.65040547
     0.45958802    -0.54099894    -0.54099894    -0.64311955
     0.46200691    -0.55850124    -0.55850124    -0.63559260
     0.46442579    -0.57579424    -0.57579424    -0.62782745
     0.46684468    -0.59287144    -0.59287144    -0.61982701
     0.46926356    -0.60972645    -0.60972645    -0.61159428
     0.47168244    -0.62635295    -0.62635295    -0.60313233
     0.47410133    -0.64274472    -0.64274472    -0.59444436
     0.47652021    -0.65889561    -0.65889561    -0.58553360
     0.47893910    -0.67479956    -0.67479956    -0.57640340
     0.48135798    -0.69045061    -0.69045061    -0.56705719
     0.48377687    -0.70584290    -0.70584290    -0.55749846
     0.48619575    -0.72097067    -0.72097067    -0.54773079
     0.48861463    -0.73582824    -0.73582824    -0.53775785
     0.49103352    -0.75041004    -0.75041004    -0.52758337
     0.49345240    -0.76471061    -0.76471061    -0.51721117
     0.49587129    -0.77872458    -0.77872458    -0.50664514
     0.49829017    -0.79244672    -0.79244672    -0.49588923
     0.50070906    -0.80587187    -0.80587187    -0.48494748
     0.50312794    -0.81899500    -0.81899500    -0.47382398
     0.50554682    -0.83181120    -0.83181120    -0.46252291
     0.50796571    -0.84431566    -0.84431566    -0.45104849
     0.51038459    -0.85650369    -0.85650369    -0.43940504
     0.51280348    -0.86837073    -0.86837073    -0.42759691
     0.51522236    -0.87991234    -0.87991234    -0.41562853
     0.51764125    -0.89112417    -0.89112417    -0.40350439
     0.52006013    -0.90200204    -0.90200204    -0.39122902
     0.52247901    -0.91254187    -0.91254187    -0.37880704
     0.52489790    -0.92273970    -0.92273970    -0.36624308
     0.52731678    -0.93259172    -0.93259172    -0.35354187
     0.52973567    -0.94209423    -0.94209423    -0.34070817
     0.53215455    -0.95124367    -0.95124367    -0.32774677
     0.53457344    -0.96003661    -0.96003661    -0.31466255
     0.53699232    -0.96846976    -0.96846976    -0.30146040
     0.53941120    -0.97653996    -0.97653996    -0.28814527
     0.54183009    -0.98424418    -0.98424418    -0.27472215
     0.54424897    -0.99157953    -0.99157953    -0.26119608
     0.54666786    -0.99854327    -0.99854327    -0.24757211
     0.54908674    -1.00513278    -1.00513278    -0.23385537
     0.55150563    -1.01134560    -1.01134560    -0.22005098
     0.55392451    -1.01717939    -1.01717939    -0.20616412
     0.55634340    -1.02263198    -1.02263198    -0.19220000
     0.55876228    -1.02770131    -1.02770131    -0.17816385
     0.56118116    -1.03238550    -1.03238550    -0.16406093
     0.56360005    -1.03668277    -1.03668277    -0.14989652
     0.56601893    -1.04059153    -1.04059153    -0.13567594
     0.56843782    -1.04411031    -1.04411031    -0.12140450
     0.57085670    -1.04723778    -1.04723778    -0.10708757
     0.57327559    -1.04997278    -1.04997278    -0.09273051
     0.57569447    -1.05231428    -1.05231428    -0.07833869
     0.57811335    -1.05426140    -1.05426140    -0.06391752
     0.58053224    -1.05581342    -1.05581342    -0.04947239
     0.58295112    -1.05696975    -1.05696975    -0.03500872
     0.58537001    -1.05772996    -1.05772996    -0.02053193
     0.58778889    -1.05809376    -1.05809376    -0.00604744
     0.59020778    -1.05806103    -1.05806103     0.00843931
     0.59262666    -1.05763176    -1.05763176     0.02292290
     0.59504554    -1.05680612    -1.05680612     0.03739790
     0.59746443    -1.05558442    -1.05558442     0.05185888
     0.59988331    -1.05396712    -1.05396712     0.06630043
     0.60230220    -1.05195483    -1.05195483     0.08071713
     0.60472108    -1.04954829    -1.04954829     0.09510358
     0.60713997    -1.04674842    -1.04674842     0.10945439
     0.60955885    -1.04355625    -1.04355625     0.12376417
     0.61197773    -1.03997299    -1.03997299     0.13802758
     0.61439662    -1.03599998    -1.03599998     0.15223925
     0.61681550    -1.03163870    -1.03163870     0.16639387
     0.61923439    -1.02689080    -1.02689080     0.18048614
     0.62165327    -1.02175805    -1.02175805     0.19451076
     0.62407216    -1.01624238    -1.01624238     0.20846248
     0.62649104    -1.01034585    -1.01034585     0.22233608
     0.62890992    -1.00407067    -1.00407067     0.23612635
     0.63132881    -0.99741919    -0.99741919     0.24982813
     0.63374769    -0.99039391    -0.99039391     0.26343628
     0.63616658    -0.98299746    -0.98299746     0.27694571
     0.63858546    -0.97523262    -0.97523262     0.29035134
     0.64100435    -0.96710228    -0.96710228     0.30364816
     0.64342323    -0.95860950    -0.95860950     0.31683118
     0.64584212    -0.94975747    -0.94975747     0.32989546
     0.64826100    -0.94054949    -0.94054949     0.34283610
     0.65067988    -0.93098902    -0.93098902     0.35564826
     0.65309877    -0.92107965    -0.92107965     0.36832714
     0.65551765    -0.91082508    -0.91082508     0.38086797
     0.65793654    -0.90022916    -0.90022916     0.39326607
     0.66035542    -0.88929587    -0.88929587     0.40551678
     0.66277431    -0.87802929    -0.87802929     0.41761552
     0.66519319    -0.86643365    -0.86643365     0.42955775
     0.66761207    -0.85451330    -0.85451330     0.44133899
     0.67003096    -0.84227270    -0.84227270     0.45295483
     0.67244984    -0.82971644    -0.82971644     0.46440092
     0.67486873    -0.81684923    -0.81684923     0.47567296
     0.67728761    -0.80367589    -0.80367589     0.48676674
     0.67970650    -0.79020136    -0.79020136     0.49767808
     0.68212538    -0.77643068    -0.77643068     0.50840292
     0.68454426    -0.76236901    -0.76236901     0.51893722
     0.68696315    -0.74802164    -0.74802164     0.52927704
     0.68938203    -0.73339393    -0.73339393     0.53941850
     0.69180092    -0.71849136    -0.71849136     0.54935780
     0.69421980    -0.70331952    -0.70331952     0.55909122
     0.69663869    -0.68788411    -0.68788411     0.56861511
     0.69905757    -0.67219089    -0.67219089     0.57792590
     0.70147645    -0.65624575    -0.65624575     0.58702009
     0.70389534    -0.64005468    -0.64005468     0.59589429
     0.70631422    -0.62362373    -0.62362373     0.60454517
     0.70873311    -0.60695906    -0.60695906     0.61296948
     0.71115199    -0.59006692    -0.59006692     0.62116407
     0.71357088    -0.57295365    -0.57295365     0.62912587
     0.71598976    -0.55562565    -0.55562565     0.63685189
     0.71840864    -0.53808941    -0.53808941     0.64433923
     0.72082753    -0.52035152    -0.52035152     0.65158509
     0.72324641    -0.50241861    -0.50241861     0.65858676
     0.72566530    -0.48429741    -0.48429741     0.66534161
     0.72808418    -0.46599472    -0.46599472     0.67184712
     0.73050307    -0.44751738    -0.44751738     0.67810083
     0.73292195    -0.42887232    -0.42887232     0.68410041
     0.73534084    -0.41006654    -0.41006654     0.68984361
     0.73775972    -0.39110707    -0.39110707     0.69532827
     0.74017860    -0.37200103    -0.37200103     0.70055235
     0.74259749    -0.35275558    -0.35275558     0.70551388
     0.74501637    -0.33337792    -0.33337792     0.71021101
     0.74743526    -0.31387532    -0.31387532     0.71464197
     0.74985414    -0.29425509    -0.29425509     0.71880510
     0.75227303    -0.27452458    -0.27452458     0.72269885
     0.75469191    -0.25469119    -0.25469119     0.72632175
     0.75711079    -0.23476235    -0.23476235     0.72967245
     0.75952968    -0.21474553    -0.21474553     0.73274968
     0.76194856    -0.19464822    -0.19464822     0.73555231
     0.76436745    -0.17447797    -0.17447797     0.73807927
     0.76678633    -0.15424233    -0.15424233     0.74032962
     0.76920522    -0.13394888    -0.13394888     0.74230251
     0.77162410    -0.11360524    -0.11360524     0.74399722
     0.77404298    -0.09321901    -0.09321901     0.74541309
     0.77646187    -0.07279785    -0.07279785     0.74654961
     0.77888075    -0.05234941    -0.05234941     0.74740634
     0.78129964    -0.03188135    -0.03188135     0.74798297
     0.78371852    -0.01140135    -0.01140135     0.74827927
     0.78613741     0.00908294     0.00908294     0.74829514
