#           time (fs)    |     mu_x (e.angstrom)   |     mu_y (e.angstrom)   |     mu_z (e.angstrom)   |
        0.000000000000000       -0.000000000000000       -0.000000000000000        0.000000000000000
        0.002418884326505       -0.000000001082128       -0.000000001899052        0.000045076855546
        0.004837768653010       -0.000000018255923       -0.000000032048992        0.000380379148305
        0.007256652979515       -0.000000051451159       -0.000000090320150        0.000714769708610
        0.009675537306020       -0.000000128067759       -0.000000224825250        0.001334586089198
        0.012094421632525       -0.000000234157534       -0.000000411058148        0.001952368332321
        0.014513305959030       -0.000000409530497       -0.000000718934778        0.002845954803982
        0.016932190285535       -0.000000627158174       -0.000001100966013        0.003736212449985
        0.019351074612040       -0.000000937563197       -0.000001645898041        0.004887996360732
        0.021769958938545       -0.000001302084947       -0.000002285794591        0.006035012580196
        0.024188843265050       -0.000001779670814       -0.000003124222438        0.007424861304076
        0.026607727591555       -0.000002322085640       -0.000004076404598        0.008808389749496
        0.029026611918060       -0.000002993884604       -0.000005255789484        0.010411952457990
        0.031445496244565       -0.000003739867606       -0.000006565335644        0.012007560748971
        0.033864380571070       -0.000004626927514       -0.000008122638136        0.013796677273998
        0.036283264897575       -0.000005595988263       -0.000009823809739        0.015576156916087
        0.038702149224080       -0.000006712646128       -0.000011784217076        0.017519326660300
        0.041121033550585       -0.000007917431404       -0.000013899237352        0.019451162347383
        0.043539917877090       -0.000009270745153       -0.000016275168648        0.021514065277904
        0.045958802203595       -0.000010716502253       -0.000018813283274        0.023563955624438
        0.048377686530100       -0.000012305854052       -0.000021603695772        0.025710016612596
        0.050796570856605       -0.000013990067531       -0.000024560537642        0.027841437603322
        0.053215455183110       -0.000015806948490       -0.000027750550790        0.030032424753129
        0.055634339509615       -0.000017719159540       -0.000031107824590        0.032207226591380
        0.058053223836120       -0.000019747141746       -0.000034668671942        0.034403873740022
        0.060472108162625       -0.000021868955565       -0.000038394167494        0.036582901327593
        0.062890992489130       -0.000024083853435       -0.000042283479499        0.038745544605452
        0.065309876815635       -0.000026389135937       -0.000046331415815        0.040889271600397
        0.067728761142140       -0.000028759354810       -0.000050493829472        0.042978489806638
        0.070147645468645       -0.000031214615943       -0.000054805524448        0.045047656080592
        0.072566529795150       -0.000033701681783       -0.000059173608856        0.047024904661136
        0.074985414121655       -0.000036266638719       -0.000063678462559        0.048981147013100
        0.077404298448160       -0.000038825898836       -0.000068173942571        0.050809375616768
        0.079823182774665       -0.000041454208297       -0.000072790715339        0.052615841791709
        0.082242067101170       -0.000044035689222       -0.000077325969093        0.054260085721466
        0.084660951427675       -0.000046675834497       -0.000081964329267        0.055882022124019
        0.087079835754180       -0.000049225239616       -0.000086444129406        0.057309958486048
        0.089498720080685       -0.000051821554335       -0.000091006439647        0.058715262464699
        0.091917604407190       -0.000054281380727       -0.000095329902646        0.059897722439369
        0.094336488733695       -0.000056775188358       -0.000099713208509        0.061057450636180
        0.096755373060200       -0.000059085939523       -0.000103775911907        0.061968880041502
        0.099174257386705       -0.000061416784878       -0.000107874091823        0.062857705046426
        0.101593141713210       -0.000063518253802       -0.000111570315323        0.063476566224550
        0.104012026039715       -0.000065625200690       -0.000115276347472        0.064073174630392
        0.106430910366220       -0.000067457796000       -0.000118501390985        0.064382283648078
        0.108849794692725       -0.000069280763555       -0.000121709689770        0.064669709559046
        0.111268679019230       -0.000070786850402       -0.000124362219555        0.064656503759457
        0.113687563345735       -0.000072267959629       -0.000126970992641        0.064622392848913
        0.116106447672240       -0.000073393186479       -0.000128955365812        0.064279124908944
        0.118525331998745       -0.000074478088199       -0.000130868941969        0.063915925234609
        0.120944216325250       -0.000075172670888       -0.000132097459797        0.063239781052354
        0.123363100651755       -0.000075811826530       -0.000133228538095        0.062544858002991
        0.125781984978260       -0.000076031761717       -0.000133623579758        0.061537996946104
        0.128200869304765       -0.000076181649321       -0.000133895352046        0.060513670894569
        0.130619753631270       -0.000075889830916       -0.000133391342694        0.059183188163302
        0.133038637957775       -0.000075514050200       -0.000132739443636        0.057836694618025
        0.135457522284280       -0.000074681264304       -0.000131284613839        0.056194506697532
        0.137876406610785       -0.000073751516725       -0.000129658856118        0.054537879958673
        0.140295290937290       -0.000072357293132       -0.000127216753824        0.052600535334271
        0.142714175263795       -0.000070854215409       -0.000124582610274        0.050650417852535
        0.145133059590300       -0.000068887516650       -0.000121133331281        0.048438836319838
        0.147551943916805       -0.000066801349223       -0.000117473130669        0.046216217106260
        0.149970828243310       -0.000064261081455       -0.000113014239122        0.043755362107052
        0.152389712569815       -0.000061592156667       -0.000108328047870        0.041285248632531
        0.154808596896320       -0.000058487490295       -0.000102875164386        0.038603738069460
        0.157227481222825       -0.000055246528711       -0.000097181332643        0.035914767106329
        0.159646365549330       -0.000051597020424       -0.000090768374136        0.033044429019050
        0.162065249875835       -0.000047805227456       -0.000084103731091        0.030168422797805
        0.164484134202340       -0.000043640739270       -0.000076782793150        0.027143803105971
        0.166903018528845       -0.000039329698169       -0.000069202483237        0.024115277974523
        0.169321902855350       -0.000034690112983       -0.000061043362775        0.020973108196805
        0.171740787181855       -0.000029901474151       -0.000052620321289        0.017828743665402
        0.174159671508360       -0.000024836211216       -0.000043709684090        0.014607377098565
        0.176578555834865       -0.000019621181627       -0.000034533757577        0.011385453721095
        0.178997440161370       -0.000014188519063       -0.000024973962151        0.008124279001310
        0.181416324487875       -0.000008607159294       -0.000015150685667        0.004864093975439
        0.183835208814380       -0.000002873374407       -0.000005058281330        0.001602935240096
        0.186254093140885        0.000003006285696        0.000005292668855       -0.001655795100658
        0.188672977467390        0.000008967944259        0.000015788745569       -0.004877282081638
        0.191091861793895        0.000015070956938        0.000026535399146       -0.008095023564393
        0.193510746120400        0.000021181448030        0.000037295899887       -0.011237949914242
        0.195929630446905        0.000027427148653        0.000048296109178       -0.014375946291155
        0.198348514773410        0.000033602948607        0.000059173785974       -0.017402773976045
        0.200767399099915        0.000039906286292        0.000070277576592       -0.020423627978917
        0.203186283426420        0.000046060807731        0.000081119691189       -0.023298730231464
        0.205605167752925        0.000052333783115        0.000092171806625       -0.026166961022698
        0.208024052079430        0.000058378878271        0.000102822793431       -0.028857150707836
        0.210442936405935        0.000064532063936        0.000113665389661       -0.031539719253494
        0.212861820732440        0.000070379586491        0.000123969625548       -0.034014737193878
        0.215280705058945        0.000076323703925        0.000134445068582       -0.036481531632696
        0.217699589385450        0.000081887102142        0.000144249700423       -0.038714487579494
        0.220118473711955        0.000087534627889        0.000154203417386       -0.040938761329261
        0.222537358038460        0.000092730540981        0.000163361196575       -0.042906521042229
        0.224956242364965        0.000097997313785        0.000172644529343       -0.044865277160925
        0.227375126691470        0.000102747143052        0.000181016601834       -0.046548789936237
        0.229794011017975        0.000107553943440        0.000189489611568       -0.048223106127026
        0.232212895344480        0.000111785369773        0.000196948212076       -0.049607668068247
        0.234631779670985        0.000116059443548        0.000204482383161       -0.050982957670409
        0.237050663997490        0.000119707863371        0.000210913383158       -0.052058407021413
        0.239469548323995        0.000123384361012        0.000217394176089       -0.053124612347927
        0.241888432650500        0.000126394213684        0.000222699437101       -0.053885454279771
        0.244307316977005        0.000129417518609        0.000228028641809       -0.054637169729534
        0.246726201303510        0.000131743479714        0.000232128128242       -0.055082629078443
        0.249145085630015        0.000134068399781        0.000236225972101       -0.055519152549492
        0.251563969956520        0.000135676416572        0.000239059581346       -0.055653154122211
        0.253982854283025        0.000137269215085        0.000241866549732       -0.055778466363643
        0.256401738609530        0.000138137362646        0.000243395621649       -0.055609543541151
        0.258820622936035        0.000138976607440        0.000244873953300       -0.055432216187787
        0.261239507262540        0.000139095746785        0.000245082426223       -0.054973349650778
        0.263658391589045        0.000139172958720        0.000245217250778       -0.054506383768182
        0.266077275915550        0.000138547181194        0.000244112436870       -0.053774773221646
        0.268496160242055        0.000137867266489        0.000242912527721       -0.053035371234127
        0.270915044568560        0.000136514112198        0.000240525486806       -0.052052144005933
        0.273333928895065        0.000135095566556        0.000238023608748       -0.051061418868604
        0.275752813221570        0.000133046008325        0.000234409106463       -0.049851280185811
        0.278171697548075        0.000130920884529        0.000230661944421       -0.048633906582768
        0.280590581874580        0.000128219072844        0.000225897987649       -0.047224737175616
        0.283009466201085        0.000125432707561        0.000220985649913       -0.045808550365030
        0.285428350527590        0.000122135476104        0.000215172599816       -0.044230957801183
        0.287847234854095        0.000118745975806        0.000209197696633       -0.042646506474609
        0.290266119180600        0.000114922111437        0.000202456967049       -0.040933337276248
        0.292685003507105        0.000110999601655        0.000195543272915       -0.039213397444806
        0.295103887833610        0.000106728887009        0.000188015629373       -0.037399217581123
        0.297522772160115        0.000102354533435        0.000180306344867       -0.035578275037980
        0.299941656486620        0.000097726574517        0.000172149826776       -0.033698826809955
        0.302360540813125        0.000092991388747        0.000163805463108       -0.031812536141144
        0.304779425139630        0.000088104244008        0.000155192958722       -0.029904179779969
        0.307198309466135        0.000083107690803        0.000146388875233       -0.027988808199791
        0.309617193792640        0.000078066322076        0.000137505385628       -0.026087956682378
        0.312036078119145        0.000072914748915        0.000128429017077       -0.024179821152580
        0.314454962445650        0.000067829318158        0.000119468651479       -0.022322376795924
        0.316873846772155        0.000062634231408        0.000110316468058       -0.020457282947867
        0.319292731098660        0.000057618270390        0.000101479218279       -0.018678084278414
        0.321711615425165        0.000052494485600        0.000092453466688       -0.016890775594227
        0.324130499751670        0.000047662968435        0.000083941813116       -0.015223062800062
        0.326549384078175        0.000042726664971        0.000075247091655       -0.013546688322924
        0.328968268404680        0.000038194015619        0.000067262497022       -0.012021595287699
        0.331387152731185        0.000033560728036        0.000059102221381       -0.010487203825093
        0.333806037057690        0.000029438796560        0.000051841571391       -0.009133284316908
        0.336224921384195        0.000025221376747        0.000044414390610       -0.007769352677263
        0.338643805710700        0.000021617419175        0.000038066442288       -0.006612147728174
        0.341062690037205        0.000017924004269        0.000031562666080       -0.005444149995752
        0.343481574363710        0.000014938701328        0.000026304565482       -0.004505802864887
        0.345900458690215        0.000011870722804        0.000020902664767       -0.003555827076709
        0.348319343016720        0.000009596272557        0.000016896595291       -0.002854751450455
        0.350738227343225        0.000007246541571        0.000012759837343       -0.002141169300963
        0.353157111669730        0.000005764860126        0.000010149858438       -0.001691775557508
        0.355575995996235        0.000004215763289        0.000007423136473       -0.001228969931858
        0.357994880322740        0.000003596826231        0.000006332269951       -0.001041453396521
        0.360413764649245        0.000002918664412        0.000005139184361       -0.000839607634124
        0.362832648975750        0.000003219019507        0.000005666801937       -0.000919801790103
        0.365251533302255        0.000003468520129        0.000006107046659       -0.000984753620341
        0.367670417628760        0.000004729999182        0.000008326607731       -0.001334050232139
        0.370089301955265        0.000005949029758        0.000010473710609       -0.001667212319648
        0.372508186281770        0.000008197684333        0.000014430893806       -0.002282549390051
        0.374927070608275        0.000010412191814        0.000018330354228       -0.002880897394427
        0.377345954934780        0.000013657473937        0.000024041619975       -0.003754814828197
        0.379764839261285        0.000016876670792        0.000029709480747       -0.004610942840203
        0.382183723587790        0.000021110875753        0.000037161095121       -0.005731704646574
        0.384602607914295        0.000025326689753        0.000044582978568       -0.006833946827894
        0.387021492240800        0.000030524673891        0.000053730521226       -0.008185727677582
        0.389440376567305        0.000035711474263        0.000062861151943       -0.009518343921865
        0.391859260893810        0.000041830656103        0.000073629522968       -0.011081476900124
        0.394278145220315        0.000047945264277        0.000084392751764       -0.012624899366725
        0.396697029546820        0.000054925912800        0.000096676684119       -0.014376180848315
        0.399115913873325        0.000061907901348        0.000108966019485       -0.016107317312813
        0.401534798199830        0.000069673710479        0.000122631095417       -0.018020364042645
        0.403953682526335        0.000077445989169        0.000136310740570       -0.019912953174481
        0.406372566852840        0.000085904932914        0.000151194902045       -0.021958605882073
        0.408791451179345        0.000094374616183        0.000166101287304       -0.023983618812041
        0.411210335505850        0.000103420074264        0.000182016822376       -0.026130386029754
        0.413629219832355        0.000112479619800        0.000197960614501       -0.028256467919134
        0.416048104158860        0.000121991759203        0.000214696593636       -0.030471003122034
        0.418466988485365        0.000131520362938        0.000231465155876       -0.032664947899046
        0.420885872811870        0.000141367756571        0.000248790284782       -0.034912552644495
        0.423304757138375        0.000151232985131        0.000266150553906       -0.037139803638525
        0.425723641464880        0.000161274444819        0.000283816402368       -0.039384949060302
        0.428142525791385        0.000171334082543        0.000301518141959       -0.041610117943847
        0.430561410117890        0.000181420679957        0.000319262701827       -0.043816976750627
        0.432980294444395        0.000191524763924        0.000337042084699       -0.046004372994936
        0.435399178770900        0.000201502009756        0.000354593604411       -0.048137354036488
        0.437818063097405        0.000211495022977        0.000372177071302       -0.050251516999571
        0.440236947423910        0.000221205171812        0.000389258109387       -0.052275794494289
        0.442655831750415        0.000230928361887        0.000406366446111       -0.054282020287825
        0.445074716076920        0.000240212807822        0.000422698082009       -0.056164049949230
        0.447493600403425        0.000249506595925        0.000439050653136       -0.058028905370988
        0.449912484729930        0.000258208322075        0.000454356790448       -0.059736919924272
        0.452331369056435        0.000266914765227        0.000469675864370       -0.061428735991098
        0.454750253382940        0.000274880808898        0.000483687559441       -0.062933212928174
        0.457169137709445        0.000282846077129        0.000497702657466       -0.064422550896135
        0.459588022035950        0.000289929971647        0.000510162404965       -0.065696645772825
        0.462006906362455        0.000297006800847        0.000522614605843       -0.066956728979863
        0.464425790688960        0.000303070954839        0.000533280512847       -0.067976668104380
        0.466844675015465        0.000309121035941        0.000543926644025       -0.068983773509775
        0.469263559341970        0.000314039011305        0.000552576425036       -0.069729200499676
        0.471682443668475        0.000318935276887        0.000561193072843       -0.070463004415994
