#           time (fs)    |     mu_x (e.angstrom)   |     mu_y (e.angstrom)   |     mu_z (e.angstrom)   |
        0.000000000000000       -0.000000000000000       -0.000000000000000        0.000000000000000
        0.002418884326505        0.000000000972769       -0.000000009111430       -0.000061160686977
        0.004837768653010        0.000000003894373       -0.000000036453747       -0.000122332774415
        0.007256652979515        0.000000008713982       -0.000000081585410       -0.000182500395221
        0.009675537306020        0.000000013341820       -0.000000124887802       -0.000209496112855
        0.012094421632525        0.000000018669223       -0.000000174784176       -0.000234525528369
        0.014513305959030        0.000000018516999       -0.000000173331304       -0.000193788038017
        0.016932190285535        0.000000016745104       -0.000000156785215       -0.000150227706473
        0.019351074612040        0.000000001208507       -0.000000011314989       -0.000009485273156
        0.021769958938545       -0.000000019327542        0.000000180864239        0.000134753592042
        0.024188843265050       -0.000000064666500        0.000000605311682        0.000405836276074
        0.026607727591555       -0.000000119354606        0.000001117165220        0.000680831013329
        0.029026611918060       -0.000000212303957        0.000001987282001        0.001110031512772
        0.031445496244565       -0.000000319802682        0.000002993467016        0.001543230787400
        0.033864380571070       -0.000000481026461        0.000004502678539        0.002155188253206
        0.036283264897575       -0.000000662704461        0.000006203221057        0.002770836913073
        0.038702149224080       -0.000000915089729        0.000008565760940        0.003586522156224
        0.041121033550585       -0.000001194369075        0.000011179908960        0.004405138219840
        0.043539917877090       -0.000001562307862        0.000014624097686        0.005441383924722
        0.045958802203595       -0.000001963925665        0.000018383409530        0.006479297023730
        0.048377686530100       -0.000002472527865        0.000023144286769        0.007748396627604
        0.050796570856605       -0.000003021732727        0.000028285109289        0.009017356328789
        0.053215455183110       -0.000003695987805        0.000034596587126        0.010526739066163
        0.055634339509615       -0.000004417689395        0.000041352095076        0.012033600440780
        0.058053223836120       -0.000005281596274        0.000049438813447        0.013785588874083
        0.060472108162625       -0.000006199487755        0.000058030794657        0.015532081475073
        0.062890992489130       -0.000007275173362        0.000068099870652        0.017523736519701
        0.065309876815635       -0.000008410847413        0.000078730451178        0.019506321585499
        0.067728761142140       -0.000009717695042        0.000090963320245        0.021729378606631
        0.070147645468645       -0.000011089774789        0.000103806829100        0.023939197853957
        0.072566529795150       -0.000012643583660        0.000118351378305        0.026380095887721
        0.074985414121655       -0.000014266889977        0.000133546552511        0.028803013709775
        0.077404298448160       -0.000016079087134        0.000150509743676        0.031443018269876
        0.079823182774665       -0.000017963863376        0.000168152470987        0.034059757549450
        0.082242067101170       -0.000020040788327        0.000187593644764        0.036875175853165
        0.084660951427675       -0.000022192002760        0.000207730433592        0.039661545964456
        0.087079835754180       -0.000024534284077        0.000229655474313        0.042624031782268
        0.089498720080685       -0.000026951028922        0.000252277828120        0.045551245724413
        0.091917604407190       -0.000029553070368        0.000276634353828        0.048628189459963
        0.094336488733695       -0.000032228074656        0.000301674210821        0.051663265474325
        0.096755373060200       -0.000035077666333        0.000328347933513        0.054818263550141
        0.099174257386705       -0.000037996937570        0.000355674312180        0.057924505055951
        0.101593141713210       -0.000041075005121        0.000384486690344        0.061117901248196
        0.104012026039715       -0.000044217612245        0.000413903657608        0.064255447519543
        0.106430910366220       -0.000047498114398        0.000444610937145        0.067444937581842
        0.108849794692725       -0.000050836121647        0.000475856989213        0.070571376311885
        0.111268679019230       -0.000054286103295        0.000508150700317        0.073712666080355
        0.113687563345735       -0.000057784661506        0.000540899617262        0.076783697861111
        0.116106447672240       -0.000061364466312        0.000574408564439        0.079831204061730
        0.118525331998745       -0.000064982064870        0.000608271768688        0.082801347870129
        0.120944216325250       -0.000068645707989        0.000642565519458        0.085708930072315
        0.123363100651755       -0.000072334587258        0.000677095936515        0.088532258110797
        0.125781984978260       -0.000076030285306        0.000711689782106        0.091253969699364
        0.128200869304765       -0.000079737005893        0.000746387169474        0.093884859402709
        0.130619753631270       -0.000083407857917        0.000780748498751        0.096375705080961
        0.133038637957775       -0.000087074019716        0.000815066176938        0.098769595776038
        0.135457522284280       -0.000090658829499        0.000848622173424        0.100986282968160
        0.137876406610785       -0.000094221930120        0.000881975061753        0.103100424561408
        0.140295290937290       -0.000097656157018        0.000914121603666        0.105002096150667
        0.142714175263795       -0.000101050576038        0.000945895433912        0.106796277317255
        0.145133059590300       -0.000104267398523        0.000976007049177        0.108345213432905
        0.147551943916805       -0.000107425491057        0.001005568602510        0.109782457086211
        0.149970828243310       -0.000110356964427        0.001033009305286        0.110944734128271
        0.152389712569815       -0.000113210244843        0.001059717493102        0.111991948450684
        0.154808596896320       -0.000115788532197        0.001083852306015        0.112738044207801
        0.157227481222825       -0.000118268926498        0.001107069893472        0.113366618213562
        0.159646365549330       -0.000120427580021        0.001127276840914        0.113671952772635
        0.162065249875835       -0.000122468723464        0.001146382593884        0.113858286238622
        0.164484134202340       -0.000124143991518        0.001162064936807        0.113703689391894
        0.166903018528845       -0.000125682546526        0.001176465958801        0.113429648019102
        0.169321902855350       -0.000126814680865        0.001187064430796        0.112801745029710
        0.171740787181855       -0.000127791649266        0.001196208446642        0.112055032871584
        0.174159671508360       -0.000128326186068        0.001201213244954        0.110946541745214
        0.176578555834865       -0.000128688189107        0.001204600582813        0.109720984242093
        0.178997440161370       -0.000128577177357        0.001203562866562        0.108130919052219
        0.181416324487875       -0.000128277676916        0.001200757889467        0.106426651425782
        0.183835208814380       -0.000127480828033        0.001193300540840        0.104360427733217
        0.186254093140885       -0.000126481262951        0.001183942283472        0.102183985000875
        0.188672977467390       -0.000124966996483        0.001169769696009        0.099653424973791
        0.191091861793895       -0.000123237808897        0.001153581471845        0.097017731419039
        0.193510746120400       -0.000120984170479        0.001132488143223        0.094040967874472
        0.195929630446905       -0.000118505698615        0.001109285901552        0.090965225432122
        0.198348514773410       -0.000115501128345        0.001081163626210        0.087566505660183
        0.200767399099915       -0.000112264344251        0.001050862857521        0.084075982320600
        0.203186283426420       -0.000108508276017        0.001015706336958        0.080285374192881
        0.205605167752925       -0.000104515349198        0.000978327348705        0.076411095171201
        0.208024052079430       -0.000100018624334        0.000936238063885        0.072264099649121
        0.210442936405935       -0.000095283295253        0.000891909476262        0.068042445677418
        0.212861820732440       -0.000090068377154        0.000843097696937        0.063579521397925
        0.215280705058945       -0.000084616127843        0.000792058039544        0.059051740053593
        0.217699589385450       -0.000078717107761        0.000736842878878        0.054317747152182
        0.220118473711955       -0.000072585120510        0.000679440203585        0.049529384607759
        0.222537358038460       -0.000066047508601        0.000618247662714        0.044572956316382
        0.224956242364965       -0.000059284407616        0.000554937124944        0.039573218258555
        0.227375126691470       -0.000052164707423        0.000488296110296        0.034446070063763
        0.229794011017975       -0.000044830082485        0.000419635509737        0.029287121757877
        0.232212895344480       -0.000037195151229        0.000348171845408        0.024043308999477
        0.234631779670985       -0.000029358866652        0.000274815157027        0.018779525547425
        0.237050663997490       -0.000021285067987        0.000199243654460        0.013474661259262
        0.239469548323995       -0.000013026364475        0.000121932620912        0.008161839992919
        0.241888432650500       -0.000004598524600        0.000043047307789        0.002852285516947
        0.244307316977005        0.000003995074172       -0.000037398795961       -0.002453166831422
        0.246726201303510        0.000012684892048       -0.000118736147189       -0.007711125403511
        0.249145085630015        0.000021518852175       -0.000201432427751       -0.012953017622329
        0.251563969956520        0.000030372736086       -0.000284305294609       -0.018103993820742
        0.253982854283025        0.000039346945675       -0.000368314646975       -0.023227173831431
        0.256401738609530        0.000048262663333       -0.000451766063968       -0.028217492552573
        0.258820622936035        0.000057273000820       -0.000536113852000       -0.033168656260582
        0.261239507262540        0.000066145642418       -0.000619161788306       -0.037947139590010
        0.263658391589045        0.000075085654380       -0.000702851550032       -0.042675611723368
        0.266077275915550        0.000083809361149       -0.000784505090030       -0.047194325925463
        0.268496160242055        0.000092572020254       -0.000866534992986       -0.051652800004081
        0.270915044568560        0.000101041767825       -0.000945811029893       -0.055867751353105
        0.273333928895065        0.000109521279355       -0.001025190781060       -0.060012976571989
        0.275752813221570        0.000117634683221       -0.001101130917588       -0.063884744512786
        0.278171697548075        0.000125728306957       -0.001176898816987       -0.067678148161907
        0.280590581874580        0.000133387416180       -0.001248586156029       -0.071172445293212
        0.283009466201085        0.000140997269384       -0.001319825973340       -0.074580680373200
        0.285428350527590        0.000148110314153       -0.001386401476818       -0.077668829932780
        0.287847234854095        0.000155145120999       -0.001452258826633       -0.080664238838926
        0.290266119180600        0.000161628179797       -0.001512936921833       -0.083323561715537
        0.292685003507105        0.000168004932852       -0.001572634815631       -0.085884548231633
        0.295103887833610        0.000173783485755       -0.001626717935757       -0.088098653010460
        0.297522772160115        0.000179428986051       -0.001679571197335       -0.090209956354664
        0.299941656486620        0.000184439322146       -0.001726462956536       -0.091968927494849
        0.302360540813125        0.000189291565945       -0.001771891202434       -0.093621793766455
        0.304779425139630        0.000193482014935       -0.001811107925068       -0.094922274684478
        0.307198309466135        0.000197491397521       -0.001848646832262       -0.096114522745943
        0.309617193792640        0.000200823358265       -0.001879827181342       -0.096959692309038
        0.312036078119145        0.000203953667920       -0.001909137790898       -0.097695672874468
        0.314454962445650        0.000206402409934       -0.001932050271184       -0.098095115566166
        0.316873846772155        0.000208631588613       -0.001952926108258       -0.098385564027880
        0.319292731098660        0.000210186806322       -0.001967474254873       -0.098355035805457
        0.321711615425165        0.000211507457489       -0.001979846081934       -0.098216821087301
        0.324130499751670        0.000212173561275       -0.001986071185104       -0.097777914681904
        0.326549384078175        0.000212593189676       -0.001990009246060       -0.097233688135284
        0.328968268404680        0.000212389322413       -0.001988090506060       -0.096413403223971
        0.331387152731185        0.000211930295328       -0.001983804163415       -0.095491153254929
        0.333806037057690        0.000210890068059       -0.001974056216372       -0.094321378535640
        0.336224921384195        0.000209589292661       -0.001961890930983       -0.093053898244472
        0.338643805710700        0.000207760238309       -0.001944758735117       -0.091570813946607
        0.341062690037205        0.000205668555033       -0.001925190387832       -0.089995090552308
        0.343481574363710        0.000203111304425       -0.001901241510203       -0.088238501295011
        0.345900458690215        0.000200292601746       -0.001874868115834       -0.086395037482831
        0.348319343016720        0.000197079791703       -0.001844782510911       -0.084407646628910
        0.350738227343225        0.000193609853247       -0.001812313426762       -0.082339725178717
        0.353157111669730        0.000189824781957       -0.001776870849239       -0.080166362903724
        0.355575995996235        0.000185789882354       -0.001739113631858       -0.077919267008660
        0.357994880322740        0.000181524932580       -0.001699178876128       -0.075606085192146
        0.360413764649245        0.000177020203839       -0.001657023990120       -0.073226287740498
        0.362832648975750        0.000172375059626       -0.001613530196692       -0.070819935470813
        0.365251533302255        0.000167502654920       -0.001567933827241       -0.068354271219731
        0.367670417628760        0.000162582342260       -0.001521864141178       -0.065901065167078
        0.370089301955265        0.000157449428751       -0.001473829406358       -0.063395900166239
        0.372508186281770        0.000152362214979       -0.001426197313359       -0.060941004305191
        0.374927070608275        0.000147078831586       -0.001376754212289       -0.058441417115787
        0.377345954934780        0.000141934022071       -0.001328582913368       -0.056028046254595
        0.379764839261285        0.000136610841756       -0.001278767380668       -0.053577035440904
        0.382183723587790        0.000131516515550       -0.001231068595472       -0.051245696731208
        0.384602607914295        0.000126262554694       -0.001181901060368       -0.048883428769488
        0.387021492240800        0.000121323283142       -0.001135653671090       -0.046671214821330
        0.389440376567305        0.000116243602734       -0.001088117539961       -0.044434325970059
        0.391859260893810        0.000111558196542       -0.001044246501719       -0.042374272384293
        0.394278145220315        0.000106751641237       -0.000999266995032       -0.040295237193295
        0.396697029546820        0.000102410972056       -0.000958622943939       -0.038415756253941
        0.399115913873325        0.000097967993504       -0.000917046721938       -0.036522334266990
        0.401534798199830        0.000094052935702       -0.000880386708319       -0.034846735224426
        0.403953682526335        0.000090053545929       -0.000842962714005       -0.033161506067526
        0.406372566852840        0.000086633082823       -0.000810932475291       -0.031707610911761
        0.408791451179345        0.000083144981835       -0.000778294408097       -0.030247606381726
        0.411210335505850        0.000080274518310       -0.000751412573762       -0.029027468282578
        0.413629219832355        0.000077351437489       -0.000724063383058       -0.027803908289305
        0.416048104158860        0.000075071357600       -0.000702707973000       -0.026823638002846
        0.418466988485365        0.000072751656942       -0.000681006727512       -0.025841775311306
        0.420885872811870        0.000071086160926       -0.000665404266052       -0.025101478860408
        0.423304757138375        0.000069391713756       -0.000649555714152       -0.024360555567219
        0.425723641464880        0.000068347963894       -0.000639773235172       -0.023854384443003
        0.428142525791385        0.000067283357558       -0.000629820322681       -0.023347701052786
        0.430561410117890        0.000066850956642       -0.000625760488419       -0.023064014099694
        0.432980294444395        0.000066403031836       -0.000621580046103       -0.022779109984744
        0.435399178770900        0.000066553851813       -0.000622979543850       -0.022700744071002
        0.437818063097405        0.000066691596877       -0.000624281297470       -0.022619686049616
        0.440236947423910        0.000067379968568       -0.000630712616304       -0.022724330631215
        0.442655831750415        0.000068054778346       -0.000637041609069       -0.022824104428283
        0.445074716076920        0.000069218046244       -0.000647918233969       -0.023084773228644
        0.447493600403425        0.000070364348136       -0.000658660686009       -0.023337770725407
        0.449912484729930        0.000071923787219       -0.000673245680739       -0.023723362009996
        0.452331369056435        0.000073460029969       -0.000687638243930       -0.024097955481626
        0.454750253382940        0.000075322114433       -0.000705056128029       -0.024573890836290
        0.457169137709445        0.000077152108150       -0.000722198428485       -0.025035083843414
        0.459588022035950        0.000079210115028       -0.000741450188979       -0.025564013990473
        0.462006906362455        0.000081224704023       -0.000760320484934       -0.026074157255376
        0.464425790688960        0.000083360627990       -0.000780301500884       -0.026616722279543
        0.466844675015465        0.000085439671393       -0.000799775221543       -0.027136281754998
        0.469263559341970        0.000087526420755       -0.000819295820459       -0.027651912173853
        0.471682443668475        0.000089541049586       -0.000838166692726       -0.028140275613052
