#           time (fs)    |     mu_x (e.angstrom)   |     mu_y (e.angstrom)   |     mu_z (e.angstrom)   |
        0.000000000000000       -0.000000000000000       -0.000000000000000        0.000000000000000
        0.002418884326505       -0.000000000041777        0.000000005131276       -0.000055911698183
        0.004837768653010       -0.000000000167370        0.000000020526849       -0.000111828280254
        0.007256652979515       -0.000000000374380        0.000000045938086       -0.000166836780856
        0.009675537306020       -0.000000000581323        0.000000071295628       -0.000194188953968
        0.012094421632525       -0.000000000822144        0.000000100868677       -0.000219780332450
        0.014513305959030       -0.000000000855854        0.000000104965764       -0.000190581310381
        0.016932190285535       -0.000000000832201        0.000000102117899       -0.000158916328041
        0.019351074612040       -0.000000000277687        0.000000034059259       -0.000046375792337
        0.021769958938545        0.000000000466063       -0.000000057089401        0.000069094123478
        0.024188843265050        0.000000002170767       -0.000000266223710        0.000289971447161
        0.026607727591555        0.000000004232718       -0.000000519027527        0.000513910468327
        0.029026611918060        0.000000007778007       -0.000000953908012        0.000865757117688
        0.031445496244565        0.000000011878871       -0.000001456759529        0.001220384099473
        0.033864380571070        0.000000018060355       -0.000002214959816        0.001722943247824
        0.036283264897575        0.000000025019051       -0.000003068296288        0.002227513718072
        0.038702149224080        0.000000034710204       -0.000004256939004        0.002897163170999
        0.041121033550585        0.000000045415472       -0.000005569762049        0.003567503656752
        0.043539917877090        0.000000059536803       -0.000007301737479        0.004416839249804
        0.045958802203595        0.000000074915536       -0.000009187728516        0.005264942557744
        0.048377686530100        0.000000094401006       -0.000011577576721        0.006302428793264
        0.050796570856605        0.000000115384042       -0.000014150901677        0.007336117888851
        0.053215455183110        0.000000141145563       -0.000017310458090        0.008565812565447
        0.055634339509615        0.000000168631779       -0.000020681363699        0.009788479579090
        0.058053223836120        0.000000201522653       -0.000024715275555        0.011209837949605
        0.060472108162625        0.000000236342252       -0.000028985586297        0.012620263591095
        0.062890992489130        0.000000277120473       -0.000033986812218        0.014228026251554
        0.065309876815635        0.000000319998380       -0.000039245441294        0.015820283554998
        0.067728761142140        0.000000369290738       -0.000045290848943        0.017604450839239
        0.070147645468645        0.000000420811060       -0.000051609438595        0.019367895712723
        0.072566529795150        0.000000479078978       -0.000058755615281        0.021313789870586
        0.074985414121655        0.000000539651443       -0.000066184421045        0.023233139414272
        0.077404298448160        0.000000607159472       -0.000074463809609        0.025321554313762
        0.079823182774665        0.000000676988773       -0.000083027939808        0.027377052326576
        0.082242067101170        0.000000753776604       -0.000092445406926        0.029584488873176
        0.084660951427675        0.000000832835494       -0.000102141522856        0.031752156423133
        0.087079835754180        0.000000918694318       -0.000112671459251        0.034051140364409
        0.089498720080685        0.000001006701257       -0.000123465033176        0.036303107782980
        0.091917604407190        0.000001101155181       -0.000135049075232        0.038662585095657
        0.094336488733695        0.000001197557232       -0.000146872292743        0.040967500304025
        0.096755373060200        0.000001299850406       -0.000159417742881        0.043353303974351
        0.099174257386705        0.000001403811989       -0.000172168123472        0.045676810688554
        0.101593141713210        0.000001512901933       -0.000185547132670        0.048052191422863
        0.104012026039715        0.000001623299922       -0.000199086927962        0.050357469542515
        0.106430910366220        0.000001737857471       -0.000213136488215        0.052683681807869
        0.108849794692725        0.000001853282980       -0.000227292901339        0.054932041192209
        0.111268679019230        0.000001971699076       -0.000241815679096        0.057168975006854
        0.113687563345735        0.000002090466158       -0.000256381931661        0.059320492900879
        0.116106447672240        0.000002210865618       -0.000271147955596        0.061427340986354
        0.118525331998745        0.000002331026947       -0.000285885210880        0.063441532592587
        0.120944216325250        0.000002451289147       -0.000300634409199        0.065377481874395
        0.123363100651755        0.000002570658598       -0.000315274541914        0.067213992981608
        0.125781984978260        0.000002688444907       -0.000329720106082        0.068938928989366
        0.128200869304765        0.000002804626815       -0.000343969290793        0.070558239173328
        0.130619753631270        0.000002917414424       -0.000357801824471        0.072033451646430
        0.133038637957775        0.000003027839135       -0.000371344896741        0.073397576350737
        0.135457522284280        0.000003132960813       -0.000384237291211        0.074586454300375
        0.137876406610785        0.000003234926031       -0.000396742818184        0.075659634085667
        0.140295290937290        0.000003329615188       -0.000408355778872        0.076528338694457
        0.142714175263795        0.000003420332447       -0.000419481759625        0.077277704107786
        0.145133059590300        0.000003501772767       -0.000429469892898        0.077795808158153
        0.147551943916805        0.000003578418268       -0.000438869993753        0.078192009014682
        0.149970828243310        0.000003643797054       -0.000446888349222        0.078333092018974
        0.152389712569815        0.000003703565984       -0.000454218565640        0.078350880398486
        0.154808596896320        0.000003750130264       -0.000459929516985        0.078093069248829
        0.157227481222825        0.000003790293607       -0.000464855141904        0.077711826181221
        0.159646365549330        0.000003815407964       -0.000467935479032        0.077038271935966
        0.162065249875835        0.000003833370759       -0.000470138247806        0.076242468574074
        0.164484134202340        0.000003834575778       -0.000470286345174        0.075141750939987
        0.166903018528845        0.000003827935694       -0.000469471619850        0.073921335984501
        0.169321902855350        0.000003803005886       -0.000466414540207        0.072387788128432
        0.171740787181855        0.000003769610964       -0.000462318390902        0.070738494367273
        0.174159671508360        0.000003716610986       -0.000455818780698        0.068772441885312
        0.176578555834865        0.000003654615357       -0.000448214819514        0.066696005925960
        0.178997440161370        0.000003571953363       -0.000438077451936        0.064303915098153
        0.181416324487875        0.000003479869780       -0.000426783275225        0.061808205691537
        0.183835208814380        0.000003366346742       -0.000412861099278        0.059002737540024
        0.186254093140885        0.000003243094765       -0.000397744197321        0.056101789302300
        0.188672977467390        0.000003097948655       -0.000379943756706        0.052901757432257
        0.191091861793895        0.000002942897398       -0.000360926755873        0.049615708247133
        0.193510746120400        0.000002765841185       -0.000339212849494        0.046045939962848
        0.195929630446905        0.000002578845592       -0.000316277960862        0.042400871871057
        0.198348514773410        0.000002370098100       -0.000290677427658        0.038491973601257
        0.200767399099915        0.000002151527820       -0.000263869987601        0.034519658531851
        0.203186283426420        0.000001911836599       -0.000234474511819        0.030307688144798
        0.205605167752925        0.000001662596631       -0.000203905514261        0.026045241390125
        0.208024052079430        0.000001393252124       -0.000170873363131        0.021571291503925
        0.210442936405935        0.000001114794567       -0.000136720899624        0.017060737359928
        0.212861820732440        0.000000817634998       -0.000100277523395        0.012370435230378
        0.215280705058945        0.000000511961362       -0.000062787065771        0.007658190689149
        0.217699589385450        0.000000189367940       -0.000023224509874        0.002801121659383
        0.220118473711955       -0.000000140978354        0.000017292009440       -0.002062594575216
        0.222537358038460       -0.000000486096151        0.000059616909011       -0.007033531778285
        0.224956242364965       -0.000000838047256        0.000102783242242       -0.011995356404617
        0.227375126691470       -0.000001202276368        0.000147451886862       -0.017024653067176
        0.229794011017975       -0.000001572267499        0.000192830842204       -0.022028791737343
        0.232212895344480       -0.000001951725821        0.000239367105352       -0.027059080762514
        0.234631779670985       -0.000002335732554        0.000286465121664       -0.032048067388004
        0.237050663997490       -0.000002726112974        0.000334340750698       -0.037020911761847
        0.239469548323995       -0.000003119697980        0.000382613629573       -0.041936402070940
        0.241888432650500       -0.000003516321432        0.000431254751818       -0.046793108171774
        0.244307316977005       -0.000003914690094        0.000480114478107       -0.051576695384993
        0.246726201303510       -0.000004312566914        0.000528909126244       -0.056259138640027
        0.249145085630015       -0.000004710631072        0.000577731686030       -0.060853178697699
        0.251563969956520       -0.000005104529802        0.000626038236673       -0.065304628819345
        0.253982854283025       -0.000005496978722        0.000674172320876       -0.069653062369898
        0.256401738609530       -0.000005881501336        0.000721328720706       -0.073818995342677
        0.258820622936035       -0.000006262878833        0.000768105183401       -0.077868153685210
        0.261239507262540       -0.000006632541213        0.000813438819696       -0.081697037823624
        0.263658391589045       -0.000006997327723        0.000858180743193       -0.085396420193417
        0.266077275915550       -0.000007346644103        0.000901018800391       -0.088840463948409
        0.268496160242055       -0.000007689342377        0.000943052004544       -0.092143473935488
        0.270915044568560       -0.000008012912350        0.000982732135973       -0.095159323685633
        0.273333928895065       -0.000008328135351        0.001021395957345       -0.098023953176992
        0.275752813221570       -0.000008620731975        0.001057277091635       -0.100573329990493
        0.278171697548075       -0.000008903291477        0.001091935249297       -0.102962779815667
        0.280590581874580       -0.000009159948962        0.001123408344585       -0.105013045097796
        0.283009466201085       -0.000009404943322        0.001153459703709       -0.106896272521865
        0.285428350527590       -0.000009621042733        0.001179958259613       -0.108420913554192
        0.287847234854095       -0.000009823942262        0.001204847301757       -0.109773097886036
        0.290266119180600       -0.000009995293707        0.001225857439407       -0.110752125500885
        0.292685003507105       -0.000010152022111        0.001245084249572       -0.111555044349512
        0.295103887833610       -0.000010274941887        0.001260154173797       -0.111975296345584
        0.297522772160115       -0.000010381952249        0.001273283759025       -0.112217606443298
        0.299941656486620       -0.000010453333499        0.001282032424018       -0.112072951814784
        0.302360540813125       -0.000010507677369        0.001288703186447       -0.111750369811001
        0.304779425139630       -0.000010525052869        0.001290827996888       -0.111041810409484
        0.307198309466135       -0.000010524441108        0.001290759195695       -0.110157190599717
        0.309617193792640       -0.000010486036943        0.001286042589180       -0.108892858451581
        0.312036078119145       -0.000010428891093        0.001279040640577       -0.107456166018104
        0.314454962445650       -0.000010333670082        0.001267355414165       -0.105651216154743
        0.316873846772155       -0.000010219163172        0.001253318896351       -0.103679396133313
        0.319292731098660       -0.000010066857105        0.001234632159761       -0.101355796431604
        0.321711615425165       -0.000009894942986        0.001213555410233       -0.098872540256745
        0.324130499751670       -0.000009686072886        0.001187931070453       -0.096058761407098
        0.326549384078175       -0.000009457503344        0.001159906285957       -0.093094174500911
        0.328968268404680       -0.000009193387175        0.001127505992402       -0.089824784794181
        0.331387152731185       -0.000008909716320        0.001092723766754       -0.086414960224848
        0.333806037057690       -0.000008592463779        0.001053806272161       -0.082730131352233
        0.336224921384195       -0.000008256039375        0.001012554533746       -0.078916636073375
        0.338643805710700       -0.000007888533630        0.000967473453384       -0.074861567541109
        0.341062690037205       -0.000007502475290        0.000920134791848       -0.070690849107823
        0.343481574363710       -0.000007088341739        0.000869334771766       -0.066315120157886
        0.345900458690215       -0.000006656506140        0.000816382171854       -0.061837843076969
        0.348319343016720       -0.000006200068522        0.000760393505354       -0.057194702154883
        0.350738227343225       -0.000005727002005        0.000702384534436       -0.052465024144392
        0.353157111669730       -0.000005233226407        0.000641816294205       -0.047610626946044
        0.355575995996235       -0.000004724105579        0.000579385818252       -0.042685426333830
        0.357994880322740       -0.000004198533116        0.000514917599057       -0.037678034277992
        0.360413764649245       -0.000003659094291        0.000448769129205       -0.032616100543604
        0.362832648975750       -0.000003107763438        0.000381141522305       -0.027515252140890
        0.365251533302255       -0.000002544221951        0.000312037320047       -0.022376452186224
        0.367670417628760       -0.000001973581729        0.000242041264859       -0.017242120197062
        0.370089301955265       -0.000001392542373        0.000170791357957       -0.012086553307467
        0.372508186281770       -0.000000809357738        0.000099256538696       -0.006978300792975
        0.374927070608275       -0.000000217717732        0.000026706821469       -0.001865455414604
        0.377345954934780        0.000000371031290       -0.000045510704157        0.003158396219749
        0.379764839261285        0.000000966185222       -0.000118491093737        0.008170470812495
        0.382183723587790        0.000001553409014       -0.000190521830404        0.013053648900749
        0.384602607914295        0.000002144907772       -0.000263053648946        0.017909143241957
        0.387021492240800        0.000002723515439       -0.000334027948082        0.022598193622745
        0.389440376567305        0.000003304217082       -0.000405235280534        0.027244298670177
        0.391859260893810        0.000003867225779       -0.000474296748125        0.031689306326090
        0.394278145220315        0.000004430125610       -0.000543320509321        0.036076922412962
        0.396697029546820        0.000004970768996       -0.000609639307176        0.040232172011482
        0.399115913873325        0.000005509108311       -0.000675650579408        0.044316555368290
        0.401534798199830        0.000006020942262       -0.000738436389112        0.048141121745457
        0.403953682526335        0.000006528313874       -0.000800649364248        0.051882458876130
        0.406372566852840        0.000007005317582       -0.000859163786397        0.055340718679082
        0.408791451179345        0.000007475766266       -0.000916848085458        0.058704620082480
        0.411210335505850        0.000007912436955       -0.000970416254333        0.061766677101204
        0.413629219832355        0.000008340553038       -0.001022908405974        0.064724583169190
        0.416048104158860        0.000008731992571       -0.001070929611348        0.067366601317046
        0.418466988485365        0.000009112996981       -0.001117643483237        0.069896094689377
        0.420885872811870        0.000009454988808       -0.001159600606384        0.072100534110078
        0.423304757138375        0.000009784808038       -0.001200036599747        0.074185554297886
        0.425723641464880        0.000010073883058       -0.001235504189647        0.075941307656555
        0.428142525791385        0.000010349212661       -0.001269257027016        0.077572265333237
        0.430561410117890        0.000010582702748       -0.001297907864880        0.078874692963569
        0.432980294444395        0.000010801058161       -0.001324672823979        0.080048482937415
        0.435399178770900        0.000010977136336       -0.001346282849175        0.080899347138944
        0.437818063097405        0.000011136890046       -0.001365860321516        0.081619260639517
        0.440236947423910        0.000011254596478       -0.001380311819378        0.082026561022764
        0.442655831750415        0.000011355000765       -0.001392610100110        0.082302099527711
        0.445074716076920        0.000011414254019       -0.001399893081434        0.082279812866302
        0.447493600403425        0.000011455448760       -0.001404929326849        0.082126407243496
        0.449912484729930        0.000011457041984       -0.001405141059766        0.081694136788840
        0.452331369056435        0.000011440047255       -0.001403040380112        0.081132777008800
        0.454750253382940        0.000011385629238       -0.001396383066896        0.080315317634200
        0.457169137709445        0.000011312322709       -0.001387375754380        0.079372099699858
        0.459588022035950        0.000011204364014       -0.001374152378228        0.078198926548471
        0.462006906362455        0.000011077443409       -0.001358569302754        0.076904524575425
        0.464425790688960        0.000010919188057       -0.001339177702027        0.075409214073521
        0.466844675015465        0.000010742119203       -0.001317443939877        0.073798286617399
        0.469263559341970        0.000010537522629       -0.001292369199389        0.072017879765516
        0.471682443668475        0.000010314473895       -0.001264995992130        0.070128420518613
