#           time (fs)       | force (atom_1) (H/b)   |  force (atom_2) (H/b)  |           ...          |  force (atom_N) (H/b)  |
        0.000000000000000       -0.000000000000000       -0.000000000000000       -0.001977038000788       -0.000000000000000       -0.000000000000000        0.001977038000788
        0.120944216325250       -0.000051668502882       -0.000021999584073       -0.009071734618639        0.000051668502645        0.000021999583836        0.009071734618639
        0.241888432650500       -0.000189094725367       -0.000079882122097       -0.016483029619411        0.000189094724408        0.000079882121138        0.016483029619411
        0.362832648975750       -0.000420673896071       -0.000177898045504       -0.024115014284980        0.000420673895591        0.000177898045024        0.024115014284980
        0.483776865301000       -0.000751691201067       -0.000318645591389       -0.031851186262032        0.000751691203828        0.000318645594150        0.031851186262032
        0.604721081626250       -0.001176791468171       -0.000496486440672       -0.039528765665110        0.001176791474200        0.000496486446701        0.039528765665110
        0.725665297951500       -0.001701621776762       -0.000719733121472       -0.046961173173033        0.001701621780066        0.000719733124776        0.046961173173033
        0.846609514276750       -0.002308450408483       -0.000976479114389       -0.053955721238838        0.002308450402310        0.000976479108216        0.053955721238838
        0.967553730602000       -0.002981787337144       -0.001260124549036       -0.060328194088247        0.002981787323326        0.001260124535219        0.060328194088247
        1.088497946927250       -0.003709264608150       -0.001567514242298       -0.065987716198272        0.003709264599036        0.001567514233184        0.065987716198272
        1.209442163252500       -0.004461960246140       -0.001884922032650       -0.070733952205847        0.004461960253306        0.001884922039816        0.070733952205847
        1.330386379577750       -0.005214209080390       -0.002206338747756       -0.074349787853357        0.005214209100425        0.002206338767790        0.074349787853357
        1.451330595903000       -0.005909303583199       -0.002496589311243       -0.076667338040722        0.005909303598398        0.002496589326443        0.076667338040722
        1.572274812228250       -0.006527819116375       -0.002757988140329       -0.077580347880186        0.006527819111892        0.002757988135846        0.077580347880186
        1.693219028553500       -0.007029460265182       -0.002970990755222       -0.077040054474044        0.007029460244906        0.002970990734946        0.077040054474044
        1.814163244878750       -0.007384650933756       -0.003123036280134       -0.075079140296576        0.007384650916541        0.003123036262919        0.075079140296576
        1.935107461204000       -0.007560865297175       -0.003194494118143       -0.071786954304645        0.007560865297450        0.003194494118418        0.071786954304645
        2.056051677529250       -0.007562413252923       -0.003196445718793       -0.067319532944072        0.007562413267352        0.003196445733222        0.067319532944072
        2.176995893854500       -0.007380769202339       -0.003120642214042       -0.061883466936222        0.007380769215803        0.003120642227506        0.061883466936222
        2.297940110179750       -0.007020060872887       -0.002966328258472       -0.055703064301058        0.007020060874998        0.002966328260583        0.055703064301058
        2.418884326505000       -0.006493587334114       -0.002746525609520       -0.048888982499479        0.006493587327338        0.002746525602744        0.048888982499479
        2.539828542830250       -0.005797184739101       -0.002451192999340       -0.041593430027062        0.005797184732330        0.002451192992569        0.041593430027062
        2.660772759155500       -0.004959500278635       -0.002096452712381       -0.034014471015718        0.004959500276986        0.002096452710732        0.034014471015718
        2.781716975480750       -0.004008639504112       -0.001695667462778       -0.026337785212066        0.004008639505809        0.001695667464475        0.026337785212066
        2.902661191806000       -0.002970751787299       -0.001258874738997       -0.018732078814600        0.002970751788767        0.001258874740465        0.018732078814600
        3.023605408131250       -0.001864638534996       -0.000789392710317       -0.011333330578366        0.001864638535317        0.000789392710638        0.011333330578366
        3.144549624456500       -0.000721006835136       -0.000305556370783       -0.004227135521718        0.000721006835046        0.000305556370693        0.004227135521718
        3.265493840781750        0.000430241479600        0.000177004690171        0.002492230778487       -0.000430241479836       -0.000177004690407       -0.002492230778487
        3.386438057107000        0.001592396917653        0.000670094776599        0.008795266721895       -0.001592396918103       -0.000670094777049       -0.008795266721895
        3.507382273432250        0.002736806820666        0.001155963279930        0.014631498234919       -0.002736806820300       -0.001155963279564       -0.014631498234919
        3.628326489757500        0.003841359237201        0.001618456336413        0.019998139332642       -0.003841359234813       -0.001618456334025       -0.019998139332642
        3.749270706082750        0.004912038936396        0.002070570324037        0.024880957058329       -0.004912038933271       -0.002070570320913       -0.024880957058329
        3.870214922408000        0.005943720908102        0.002511346940456        0.029289083483797       -0.005943720908355       -0.002511346940709       -0.029289083483797
        3.991159138733250        0.006905965012750        0.002914315504699        0.033230198140040       -0.006905965018597       -0.002914315510546       -0.033230198140040
        4.112103355058500        0.007808321726938        0.003292138314262        0.036716274291063       -0.007808321734283       -0.003292138321607       -0.036716274291063
        4.233047571383750        0.008665522568519        0.003661569467326        0.039765143277507       -0.008665522569910       -0.003661569468718       -0.039765143277507
        4.353991787709000        0.009437917066914        0.003984384104272        0.042396251024276       -0.009437917058546       -0.003984384095904       -0.042396251024276
        4.474936004034250        0.010143906679717        0.004278691346260        0.044639246485078       -0.010143906667653       -0.004278691334196       -0.044639246485078
        4.595880220359500        0.010806802250572        0.004565345172264        0.046536486385674       -0.010806802246104       -0.004565345167797       -0.046536486385674
        4.716824436684750        0.011395424918614        0.004811444669116        0.048120801384586       -0.011395424927602       -0.004811444678103       -0.048120801384586
        4.837768653010000        0.011924088590407        0.005031548155922        0.049407785497251       -0.011924088606087       -0.005031548171602       -0.049407785497251
        4.958712869335250        0.012407156572365        0.005239930340967        0.050413742419922       -0.012407156580518       -0.005239930349120       -0.050413742419922
        5.079657085660500        0.012826129315305        0.005417827557851        0.051154706574491       -0.012826129307712       -0.005417827550258       -0.051154706574491
        5.200601301985750        0.013172391105166        0.005557038444952        0.051640491135003       -0.013172391087859       -0.005557038427644       -0.051640491135003
        5.321545518311000        0.013482487383556        0.005693970170861        0.051884087561204       -0.013482487372033       -0.005693970159339       -0.051884087561204
        5.442489734636251        0.013727072160780        0.005800491046781        0.051888441340027       -0.013727072165535       -0.005800491051536       -0.051888441340027
        5.563433950961501        0.013887279891901        0.005858518169849        0.051659129336541       -0.013887279908603       -0.005858518186552       -0.051659129336541
        5.684378167286750        0.014007347943509        0.005913946751091        0.051195883751073       -0.014007347957044       -0.005913946764626       -0.051195883751073
        5.805322383612000        0.014057296684261        0.005940462624866        0.050486098403731       -0.014057296682884       -0.005940462623490       -0.050486098403731
        5.926266599937250        0.014009875176491        0.005913638386566        0.049523348603766       -0.014009875162364       -0.005913638372439       -0.049523348603766
        6.047210816262500        0.013887513161074        0.005859778377796        0.048295583435389       -0.013887513147516       -0.005859778364238       -0.048295583435389
        6.168155032587750        0.013696249402515        0.005788216484252        0.046795322623336       -0.013696249400972       -0.005788216482710       -0.046795322623336
        6.289099248913001        0.013382107927791        0.005650361117403        0.045003855294372       -0.013382107937853       -0.005650361127465       -0.045003855294372
        6.410043465238251        0.012960346604878        0.005467414952553        0.042901015988029       -0.012960346616422       -0.005467414964096       -0.042901015988029
        6.530987681563500        0.012440633019386        0.005256848936412        0.040458137691011       -0.012440633022478       -0.005256848939505       -0.040458137691011
        6.651931897888750        0.011759707667585        0.004965451315992        0.037636776493441       -0.011759707661995       -0.004965451310402       -0.037636776493441
        6.772876114214000        0.010926123342889        0.004608945552859        0.034417629725854       -0.010926123335352       -0.004608945545323       -0.034417629725854
        6.893820330539250        0.009945519028398        0.004200548962810        0.030781617242649       -0.009945519025603       -0.004200548960015       -0.030781617242649
        7.014764546864500        0.008780675236490        0.003708134707615        0.026725322697269       -0.008780675238562       -0.003708134709686       -0.026725322697269
        7.135708763189751        0.007423024691845        0.003128872027290        0.022243690676619       -0.007423024694744       -0.003128872030189       -0.022243690676619
        7.256652979515001        0.005884164970395        0.002482257976579        0.017322593201650       -0.005884164971642       -0.002482257977826       -0.017322593201650
        7.377597195840250        0.004143746308419        0.001750166323695        0.011979002362466       -0.004143746308268       -0.001750166323544       -0.011979002362466
        7.498541412165500        0.002176556627626        0.000911947239029        0.006219072128668       -0.002176556627694       -0.000911947239096       -0.006219072128668
        7.619485628490750        0.000013553705453       -0.000000903631241        0.000069850062872       -0.000013553705715        0.000000903630979       -0.000069850062872
        7.740429844816000       -0.002343978946683       -0.000991091676501       -0.006420160536723        0.002343978946725        0.000991091676543        0.006420160536723
        7.861374061141250       -0.004916700617862       -0.002084917875420       -0.013196448367885        0.004916700617838        0.002084917875396        0.013196448367885
        7.982318277466501       -0.007652015779032       -0.003243395507471       -0.020170455436891        0.007652015777855        0.003243395506294        0.020170455436891
        8.103262493791750       -0.010506543124116       -0.004441362677726       -0.027238196587893        0.010506543123931        0.004441362677541        0.027238196587893
        8.224206710117000       -0.013475359774007       -0.005701311577059       -0.034262153463953        0.013475359777575        0.005701311580627        0.034262153463953
        8.345150926442249       -0.016473097646327       -0.006973923770506       -0.041077659151661        0.016473097652774        0.006973923776953        0.041077659151661
        8.466095142767500       -0.019396434625963       -0.008200487711657       -0.047496789653887        0.019396434628405        0.008200487714099        0.047496789653887
        8.587039359092751       -0.022221441661324       -0.009398890033073       -0.053358948877791        0.022221441653498        0.009398890025248        0.053358948877791
        8.707983575418000       -0.024867890376413       -0.010521995334763       -0.058553558728885        0.024867890362047        0.010521995320396        0.058553558728885
        8.828927791743251       -0.027248783181863       -0.011523124482523       -0.062952233969323        0.027248783174457        0.011523124475116        0.062952233969323
        8.949872008068500       -0.029284514719231       -0.012384762097833       -0.066353797717780        0.029284514728657        0.012384762107259        0.066353797717780
        9.070816224393750       -0.030877692955371       -0.013064711738261       -0.068601885009096        0.030877692975391        0.013064711758280        0.068601885009096
        9.191760440718999       -0.031920891241315       -0.013500002785277       -0.069595354371080        0.031920891253778        0.013500002797740        0.069595354371080
        9.312704657044250       -0.032382405294091       -0.013692857086624       -0.069282009896131        0.032382405287181        0.013692857079713        0.069282009896131
        9.433648873369501       -0.032256236454267       -0.013650591971259       -0.067690067878238        0.032256236434906        0.013650591951899        0.067690067878238
        9.554593089694750       -0.031486433777810       -0.013319262862003       -0.064886729583940        0.031486433764080        0.013319262848272        0.064886729583940
        9.675537306020001       -0.030140715251610       -0.012745615545657       -0.061014714794223        0.030140715254097        0.012745615548144        0.061014714794223
        9.796481522345250       -0.028298613493857       -0.011974568297938       -0.056252690767264        0.028298613506790        0.011974568310870        0.056252690767264
        9.917425738670500       -0.026012718555479       -0.011010081467464       -0.050812960031973        0.026012718565457        0.011010081477442        0.050812960031973
       10.038369954995749       -0.023320950946878       -0.009862159347090       -0.044822817653409        0.023320950947240        0.009862159347453        0.044822817653409
       10.159314171321000       -0.020323653647316       -0.008601858622094       -0.038403961489755        0.020323653641864        0.008601858616642        0.038403961489755
       10.280258387646251       -0.017066398136886       -0.007228845367705       -0.031722314818262        0.017066398132959        0.007228845363777        0.031722314818262
       10.401202603971500       -0.013615199381353       -0.005758832480831       -0.024946169116721        0.013615199380817        0.005758832480295        0.024946169116721
       10.522146820296751       -0.010112518915318       -0.004283385824773       -0.018234646973443        0.010112518916206        0.004283385825660        0.018234646973443
       10.643091036622000       -0.006603690454146       -0.002805400298729       -0.011711053038146        0.006603690454178        0.002805400298761        0.011711053038146
       10.764035252947250       -0.003112424817923       -0.001319195572443       -0.005451993830482        0.003112424817708        0.001319195572229        0.005451993830482
       10.884979469272501        0.000255395318924        0.000103395839734        0.000455893717375       -0.000255395318818       -0.000103395839628       -0.000455893717375
       11.005923685597750        0.003481914705940        0.001458790516804        0.005988619856906       -0.003481914706088       -0.001458790516952       -0.005988619856906
       11.126867901923001        0.006573015526493        0.002774538868506        0.011101161001369       -0.006573015526736       -0.002774538868749       -0.011101161001369
       11.247812118248250        0.009472881957188        0.004004513305431        0.015784584496709       -0.009472881956384       -0.004004513304627       -0.015784584496709
       11.368756334573501        0.012148923002045        0.005123604714890        0.020035907949172       -0.012148922998631       -0.005123604711476       -0.020035907949172
       11.489700550898750        0.014654359025959        0.006189993510595        0.023858639248141       -0.014654359022793       -0.006189993507430       -0.023858639248141
       11.610644767224001        0.016954883103458        0.007171528129482        0.027263225683543       -0.016954883104619       -0.007171528130642       -0.027263225683543
       11.731588983549251        0.019008976730141        0.008025252382896        0.030268895910177       -0.019008976737591       -0.008025252390347       -0.030268895910177
       11.852533199874500        0.020890368101889        0.008825457282355        0.032888008060521       -0.020890368109639       -0.008825457290105       -0.032888008060521
       11.973477416199751        0.022579703572766        0.009551842637582        0.035135964582743       -0.022579703572832       -0.009551842637648       -0.035135964582743
       12.094421632525000        0.024027075801657        0.010150320153223        0.037035732757320       -0.024027075791106       -0.010150320142672       -0.037035732757320
       12.215365848850251        0.025318421522951        0.010695129206253        0.038628844106587       -0.025318421510309       -0.010695129193611       -0.038628844106587
       12.336310065175500        0.026477040610036        0.011200413563110        0.039948233519767       -0.026477040607156       -0.011200413560230       -0.039948233519767
       12.457254281500751        0.027435441361539        0.011597489902765        0.041004699115801       -0.027435441372839       -0.011597489914065       -0.041004699115801
       12.578198497826001        0.028242546048798        0.011928006343597        0.041824056940825       -0.028242546065066       -0.011928006359865       -0.041824056940825
       12.699142714151250        0.028958290211002        0.012249307809326        0.042419124370988       -0.028958290217538       -0.012249307815861       -0.042419124370988
       12.820086930476501        0.029492526925826        0.012472143415621        0.042793394212897       -0.029492526915752       -0.012472143405547       -0.042793394212897
       12.941031146801750        0.029864918938836        0.012614589869385        0.042956377906404       -0.029864918920725       -0.012614589851273       -0.042956377906404
       13.061975363127001        0.030154255320929        0.012752030541096        0.042921718862691       -0.030154255311001       -0.012752030531168       -0.042921718862691
       13.182919579452250        0.030290933406126        0.012812867163895        0.042699134879205       -0.030290933413319       -0.012812867171088       -0.042699134879205
       13.303863795777501        0.030256805404834        0.012783490505654        0.042282228137051       -0.030256805422449       -0.012783490523269       -0.042282228137051
       13.424808012102751        0.030116812659822        0.012732528438961        0.041666977353391       -0.030116812672054       -0.012732528451194       -0.041666977353391
