#     time (fs)  |  E_x (eV/ang)  | E_y (eV/ang) | E_z (eV/ang)
     0.00000000     0.00000000     0.00000000     0.00000000
     0.00241888     0.00315348     0.00315348     0.00000000
     0.00483777     0.00630573     0.00630573     0.00000000
     0.00725665     0.00945555     0.00945555     0.00000000
     0.00967554     0.01260170     0.01260170     0.00000000
     0.01209442     0.01574298     0.01574298     0.00000000
     0.01451331     0.01887815     0.01887815     0.00000000
     0.01693219     0.02200602     0.02200602     0.00000000
     0.01935107     0.02512537     0.02512537     0.00000000
     0.02176996     0.02823499     0.02823499     0.00000000
     0.02418884     0.03133368     0.03133368     0.00000000
     0.02660773     0.03442024     0.03442024     0.00000000
     0.02902661     0.03749347     0.03749347     0.00000000
     0.03144550     0.04055218     0.04055218     0.00000000
     0.03386438     0.04359519     0.04359519     0.00000000
     0.03628326     0.04662132     0.04662132     0.00000000
     0.03870215     0.04962941     0.04962941     0.00000000
     0.04112103     0.05261827     0.05261827     0.00000000
     0.04353992     0.05558676     0.05558676     0.00000000
     0.04595880     0.05853373     0.05853373     0.00000000
     0.04837769     0.06145804     0.06145804     0.00000000
     0.05079657     0.06435855     0.06435855     0.00000000
     0.05321546     0.06723414     0.06723414     0.00000000
     0.05563434     0.07008370     0.07008370     0.00000000
     0.05805322     0.07290612     0.07290612     0.00000000
     0.06047211     0.07570032     0.07570032     0.00000000
     0.06289099     0.07846521     0.07846521     0.00000000
     0.06530988     0.08119971     0.08119971     0.00000000
     0.06772876     0.08390278     0.08390278     0.00000000
     0.07014765     0.08657336     0.08657336     0.00000000
     0.07256653     0.08921042     0.08921042     0.00000000
     0.07498541     0.09181294     0.09181294     0.00000000
     0.07740430     0.09437991     0.09437991     0.00000000
     0.07982318     0.09691033     0.09691033     0.00000000
     0.08224207     0.09940324     0.09940324     0.00000000
     0.08466095     0.10185766     0.10185766     0.00000000
     0.08707984     0.10427264     0.10427264     0.00000000
     0.08949872     0.10664724     0.10664724     0.00000000
     0.09191760     0.10898056     0.10898056     0.00000000
     0.09433649     0.11127168     0.11127168     0.00000000
     0.09675537     0.11351971     0.11351971     0.00000000
     0.09917426     0.11572380     0.11572380     0.00000000
     0.10159314     0.11788307     0.11788307     0.00000000
     0.10401203     0.11999671     0.11999671     0.00000000
     0.10643091     0.12206388     0.12206388     0.00000000
     0.10884979     0.12408379     0.12408379     0.00000000
     0.11126868     0.12605566     0.12605566     0.00000000
     0.11368756     0.12797872     0.12797872     0.00000000
     0.11610645     0.12985223     0.12985223     0.00000000
     0.11852533     0.13167546     0.13167546     0.00000000
     0.12094422     0.13344771     0.13344771     0.00000000
     0.12336310     0.13516829     0.13516829     0.00000000
     0.12578198     0.13683654     0.13683654     0.00000000
     0.12820087     0.13845180     0.13845180     0.00000000
     0.13061975     0.14001346     0.14001346     0.00000000
     0.13303864     0.14152090     0.14152090     0.00000000
     0.13545752     0.14297355     0.14297355     0.00000000
     0.13787641     0.14437085     0.14437085     0.00000000
     0.14029529     0.14571224     0.14571224     0.00000000
     0.14271418     0.14699722     0.14699722     0.00000000
     0.14513306     0.14822528     0.14822528     0.00000000
     0.14755194     0.14939595     0.14939595     0.00000000
     0.14997083     0.15050878     0.15050878     0.00000000
     0.15238971     0.15156333     0.15156333     0.00000000
     0.15480860     0.15255920     0.15255920     0.00000000
     0.15722748     0.15349601     0.15349601     0.00000000
     0.15964637     0.15437337     0.15437337     0.00000000
     0.16206525     0.15519097     0.15519097     0.00000000
     0.16448413     0.15594848     0.15594848     0.00000000
     0.16690302     0.15664561     0.15664561     0.00000000
     0.16932190     0.15728209     0.15728209     0.00000000
     0.17174079     0.15785767     0.15785767     0.00000000
     0.17415967     0.15837213     0.15837213     0.00000000
     0.17657856     0.15882527     0.15882527     0.00000000
     0.17899744     0.15921692     0.15921692     0.00000000
     0.18141632     0.15954692     0.15954692     0.00000000
     0.18383521     0.15981514     0.15981514     0.00000000
     0.18625409     0.16002149     0.16002149     0.00000000
     0.18867298     0.16016588     0.16016588     0.00000000
     0.19109186     0.16024826     0.16024826     0.00000000
     0.19351075     0.16026859     0.16026859     0.00000000
     0.19592963     0.16022686     0.16022686     0.00000000
     0.19834851     0.16012310     0.16012310     0.00000000
     0.20076740     0.15995734     0.15995734     0.00000000
     0.20318628     0.15972965     0.15972965     0.00000000
     0.20560517     0.15944011     0.15944011     0.00000000
     0.20802405     0.15908884     0.15908884     0.00000000
     0.21044294     0.15867597     0.15867597     0.00000000
     0.21286182     0.15820167     0.15820167     0.00000000
     0.21528071     0.15766611     0.15766611     0.00000000
     0.21769959     0.15706950     0.15706950     0.00000000
     0.22011847     0.15641208     0.15641208     0.00000000
     0.22253736     0.15569410     0.15569410     0.00000000
     0.22495624     0.15491584     0.15491584     0.00000000
     0.22737513     0.15407760     0.15407760     0.00000000
     0.22979401     0.15317970     0.15317970     0.00000000
     0.23221290     0.15222249     0.15222249     0.00000000
     0.23463178     0.15120634     0.15120634     0.00000000
     0.23705066     0.15013165     0.15013165     0.00000000
     0.23946955     0.14899882     0.14899882     0.00000000
     0.24188843     0.14780831     0.14780831     0.00000000
     0.24430732     0.14656057     0.14656057     0.00000000
     0.24672620     0.14525608     0.14525608     0.00000000
     0.24914509     0.14389535     0.14389535     0.00000000
     0.25156397     0.14247891     0.14247891     0.00000000
     0.25398285     0.14100730     0.14100730     0.00000000
     0.25640174     0.13948110     0.13948110     0.00000000
     0.25882062     0.13790089     0.13790089     0.00000000
     0.26123951     0.13626729     0.13626729     0.00000000
     0.26365839     0.13458092     0.13458092     0.00000000
     0.26607728     0.13284245     0.13284245     0.00000000
     0.26849616     0.13105254     0.13105254     0.00000000
     0.27091504     0.12921190     0.12921190     0.00000000
     0.27333393     0.12732122     0.12732122     0.00000000
     0.27575281     0.12538124     0.12538124     0.00000000
     0.27817170     0.12339272     0.12339272     0.00000000
     0.28059058     0.12135643     0.12135643     0.00000000
     0.28300947     0.11927314     0.11927314     0.00000000
     0.28542835     0.11714368     0.11714368     0.00000000
     0.28784723     0.11496886     0.11496886     0.00000000
     0.29026612     0.11274952     0.11274952     0.00000000
     0.29268500     0.11048653     0.11048653     0.00000000
     0.29510389     0.10818077     0.10818077     0.00000000
     0.29752277     0.10583311     0.10583311     0.00000000
     0.29994166     0.10344448     0.10344448     0.00000000
     0.30236054     0.10101579     0.10101579     0.00000000
     0.30477943     0.09854800     0.09854800     0.00000000
     0.30719831     0.09604204     0.09604204     0.00000000
     0.30961719     0.09349891     0.09349891     0.00000000
     0.31203608     0.09091957     0.09091957     0.00000000
     0.31445496     0.08830502     0.08830502     0.00000000
     0.31687385     0.08565629     0.08565629     0.00000000
     0.31929273     0.08297439     0.08297439     0.00000000
     0.32171162     0.08026037     0.08026037     0.00000000
     0.32413050     0.07751527     0.07751527     0.00000000
     0.32654938     0.07474015     0.07474015     0.00000000
     0.32896827     0.07193610     0.07193610     0.00000000
     0.33138715     0.06910420     0.06910420     0.00000000
     0.33380604     0.06624554     0.06624554     0.00000000
     0.33622492     0.06336123     0.06336123     0.00000000
     0.33864381     0.06045238     0.06045238     0.00000000
     0.34106269     0.05752013     0.05752013     0.00000000
     0.34348157     0.05456561     0.05456561     0.00000000
     0.34590046     0.05158997     0.05158997     0.00000000
     0.34831934     0.04859435     0.04859435     0.00000000
     0.35073823     0.04557991     0.04557991     0.00000000
     0.35315711     0.04254782     0.04254782     0.00000000
     0.35557600     0.03949927     0.03949927     0.00000000
     0.35799488     0.03643541     0.03643541     0.00000000
     0.36041376     0.03335745     0.03335745     0.00000000
     0.36283265     0.03026658     0.03026658     0.00000000
     0.36525153     0.02716399     0.02716399     0.00000000
     0.36767042     0.02405087     0.02405087     0.00000000
     0.37008930     0.02092845     0.02092845     0.00000000
     0.37250819     0.01779792     0.01779792     0.00000000
     0.37492707     0.01466051     0.01466051     0.00000000
     0.37734595     0.01151741     0.01151741     0.00000000
     0.37976484     0.00836986     0.00836986     0.00000000
     0.38218372     0.00521907     0.00521907     0.00000000
     0.38460261     0.00206625     0.00206625     0.00000000
     0.38702149    -0.00108736    -0.00108736    -0.00000000
     0.38944038    -0.00424056    -0.00424056    -0.00000000
     0.39185926    -0.00739211    -0.00739211    -0.00000000
     0.39427815    -0.01054080    -0.01054080    -0.00000000
     0.39669703    -0.01368541    -0.01368541    -0.00000000
     0.39911591    -0.01682472    -0.01682472    -0.00000000
     0.40153480    -0.01995751    -0.01995751    -0.00000000
     0.40395368    -0.02308258    -0.02308258    -0.00000000
     0.40637257    -0.02619871    -0.02619871    -0.00000000
     0.40879145    -0.02930470    -0.02930470    -0.00000000
     0.41121034    -0.03239934    -0.03239934    -0.00000000
     0.41362922    -0.03548144    -0.03548144    -0.00000000
     0.41604810    -0.03854980    -0.03854980    -0.00000000
     0.41846699    -0.04160323    -0.04160323    -0.00000000
     0.42088587    -0.04464055    -0.04464055    -0.00000000
     0.42330476    -0.04766059    -0.04766059    -0.00000000
     0.42572364    -0.05066218    -0.05066218    -0.00000000
     0.42814253    -0.05364415    -0.05364415    -0.00000000
     0.43056141    -0.05660535    -0.05660535    -0.00000000
     0.43298029    -0.05954464    -0.05954464    -0.00000000
     0.43539918    -0.06246086    -0.06246086    -0.00000000
     0.43781806    -0.06535291    -0.06535291    -0.00000000
     0.44023695    -0.06821965    -0.06821965    -0.00000000
     0.44265583    -0.07105998    -0.07105998    -0.00000000
     0.44507472    -0.07387279    -0.07387279    -0.00000000
     0.44749360    -0.07665700    -0.07665700    -0.00000000
     0.44991248    -0.07941154    -0.07941154    -0.00000000
     0.45233137    -0.08213532    -0.08213532    -0.00000000
     0.45475025    -0.08482730    -0.08482730    -0.00000000
     0.45716914    -0.08748644    -0.08748644    -0.00000000
     0.45958802    -0.09011171    -0.09011171    -0.00000000
     0.46200691    -0.09270208    -0.09270208    -0.00000000
     0.46442579    -0.09525656    -0.09525656    -0.00000000
     0.46684468    -0.09777416    -0.09777416    -0.00000000
     0.46926356    -0.10025391    -0.10025391    -0.00000000
     0.47168244    -0.10269483    -0.10269483    -0.00000000
     0.47410133    -0.10509600    -0.10509600    -0.00000000
     0.47652021    -0.10745647    -0.10745647    -0.00000000
     0.47893910    -0.10977534    -0.10977534    -0.00000000
     0.48135798    -0.11205170    -0.11205170    -0.00000000
     0.48377687    -0.11428468    -0.11428468    -0.00000000
     0.48619575    -0.11647341    -0.11647341    -0.00000000
     0.48861463    -0.11861704    -0.11861704    -0.00000000
     0.49103352    -0.12071475    -0.12071475    -0.00000000
     0.49345240    -0.12276571    -0.12276571    -0.00000000
     0.49587129    -0.12476915    -0.12476915    -0.00000000
     0.49829017    -0.12672427    -0.12672427    -0.00000000
     0.50070906    -0.12863033    -0.12863033    -0.00000000
     0.50312794    -0.13048659    -0.13048659    -0.00000000
     0.50554682    -0.13229232    -0.13229232    -0.00000000
     0.50796571    -0.13404683    -0.13404683    -0.00000000
     0.51038459    -0.13574944    -0.13574944    -0.00000000
     0.51280348    -0.13739949    -0.13739949    -0.00000000
     0.51522236    -0.13899634    -0.13899634    -0.00000000
     0.51764125    -0.14053937    -0.14053937    -0.00000000
     0.52006013    -0.14202799    -0.14202799    -0.00000000
     0.52247901    -0.14346161    -0.14346161    -0.00000000
     0.52489790    -0.14483969    -0.14483969    -0.00000000
     0.52731678    -0.14616170    -0.14616170    -0.00000000
     0.52973567    -0.14742710    -0.14742710    -0.00000000
     0.53215455    -0.14863543    -0.14863543    -0.00000000
     0.53457344    -0.14978621    -0.14978621    -0.00000000
     0.53699232    -0.15087899    -0.15087899    -0.00000000
     0.53941120    -0.15191335    -0.15191335    -0.00000000
     0.54183009    -0.15288890    -0.15288890    -0.00000000
     0.54424897    -0.15380525    -0.15380525    -0.00000000
     0.54666786    -0.15466205    -0.15466205    -0.00000000
     0.54908674    -0.15545896    -0.15545896    -0.00000000
     0.55150563    -0.15619568    -0.15619568    -0.00000000
     0.55392451    -0.15687193    -0.15687193    -0.00000000
     0.55634340    -0.15748744    -0.15748744    -0.00000000
     0.55876228    -0.15804197    -0.15804197    -0.00000000
     0.56118116    -0.15853531    -0.15853531    -0.00000000
     0.56360005    -0.15896727    -0.15896727    -0.00000000
     0.56601893    -0.15933767    -0.15933767    -0.00000000
     0.56843782    -0.15964639    -0.15964639    -0.00000000
     0.57085670    -0.15989329    -0.15989329    -0.00000000
     0.57327559    -0.16007828    -0.16007828    -0.00000000
     0.57569447    -0.16020129    -0.16020129    -0.00000000
     0.57811335    -0.16026227    -0.16026227    -0.00000000
     0.58053224    -0.16026121    -0.16026121     0.00000000
     0.58295112    -0.16019809    -0.16019809     0.00000000
     0.58537001    -0.16007295    -0.16007295     0.00000000
     0.58778889    -0.15988582    -0.15988582     0.00000000
     0.59020778    -0.15963680    -0.15963680     0.00000000
     0.59262666    -0.15932596    -0.15932596     0.00000000
     0.59504554    -0.15895343    -0.15895343     0.00000000
     0.59746443    -0.15851936    -0.15851936     0.00000000
     0.59988331    -0.15802392    -0.15802392     0.00000000
     0.60230220    -0.15746729    -0.15746729     0.00000000
     0.60472108    -0.15684968    -0.15684968     0.00000000
     0.60713997    -0.15617135    -0.15617135     0.00000000
     0.60955885    -0.15543256    -0.15543256     0.00000000
     0.61197773    -0.15463358    -0.15463358     0.00000000
     0.61439662    -0.15377473    -0.15377473     0.00000000
     0.61681550    -0.15285634    -0.15285634     0.00000000
     0.61923439    -0.15187876    -0.15187876     0.00000000
     0.62165327    -0.15084238    -0.15084238     0.00000000
     0.62407216    -0.14974760    -0.14974760     0.00000000
     0.62649104    -0.14859484    -0.14859484     0.00000000
     0.62890992    -0.14738454    -0.14738454     0.00000000
     0.63132881    -0.14611718    -0.14611718     0.00000000
     0.63374769    -0.14479324    -0.14479324     0.00000000
     0.63616658    -0.14341324    -0.14341324     0.00000000
     0.63858546    -0.14197771    -0.14197771     0.00000000
     0.64100435    -0.14048721    -0.14048721     0.00000000
     0.64342323    -0.13894232    -0.13894232     0.00000000
     0.64584212    -0.13734363    -0.13734363     0.00000000
     0.64826100    -0.13569176    -0.13569176     0.00000000
     0.65067988    -0.13398736    -0.13398736     0.00000000
     0.65309877    -0.13223107    -0.13223107     0.00000000
     0.65551765    -0.13042359    -0.13042359     0.00000000
     0.65793654    -0.12856561    -0.12856561     0.00000000
     0.66035542    -0.12665786    -0.12665786     0.00000000
     0.66277431    -0.12470106    -0.12470106     0.00000000
     0.66519319    -0.12269598    -0.12269598     0.00000000
     0.66761207    -0.12064339    -0.12064339     0.00000000
     0.67003096    -0.11854409    -0.11854409     0.00000000
     0.67244984    -0.11639889    -0.11639889     0.00000000
     0.67486873    -0.11420863    -0.11420863     0.00000000
     0.67728761    -0.11197414    -0.11197414     0.00000000
     0.67970650    -0.10969630    -0.10969630     0.00000000
     0.68212538    -0.10737599    -0.10737599     0.00000000
     0.68454426    -0.10501410    -0.10501410     0.00000000
     0.68696315    -0.10261156    -0.10261156     0.00000000
     0.68938203    -0.10016928    -0.10016928     0.00000000
     0.69180092    -0.09768822    -0.09768822     0.00000000
     0.69421980    -0.09516933    -0.09516933     0.00000000
     0.69663869    -0.09261360    -0.09261360     0.00000000
     0.69905757    -0.09002201    -0.09002201     0.00000000
     0.70147645    -0.08739556    -0.08739556     0.00000000
     0.70389534    -0.08473528    -0.08473528     0.00000000
     0.70631422    -0.08204219    -0.08204219     0.00000000
     0.70873311    -0.07931733    -0.07931733     0.00000000
     0.71115199    -0.07656176    -0.07656176     0.00000000
     0.71357088    -0.07377654    -0.07377654     0.00000000
     0.71598976    -0.07096277    -0.07096277     0.00000000
     0.71840864    -0.06812151    -0.06812151     0.00000000
     0.72082753    -0.06525388    -0.06525388     0.00000000
     0.72324641    -0.06236099    -0.06236099     0.00000000
     0.72566530    -0.05944395    -0.05944395     0.00000000
     0.72808418    -0.05650389    -0.05650389     0.00000000
     0.73050307    -0.05354196    -0.05354196     0.00000000
     0.73292195    -0.05055929    -0.05055929     0.00000000
     0.73534084    -0.04755705    -0.04755705     0.00000000
     0.73775972    -0.04453640    -0.04453640     0.00000000
     0.74017860    -0.04149850    -0.04149850     0.00000000
     0.74259749    -0.03844453    -0.03844453     0.00000000
     0.74501637    -0.03537568    -0.03537568     0.00000000
     0.74743526    -0.03229314    -0.03229314     0.00000000
     0.74985414    -0.02919808    -0.02919808     0.00000000
     0.75227303    -0.02609173    -0.02609173     0.00000000
     0.75469191    -0.02297527    -0.02297527     0.00000000
     0.75711079    -0.01984992    -0.01984992     0.00000000
     0.75952968    -0.01671688    -0.01671688     0.00000000
     0.76194856    -0.01357736    -0.01357736     0.00000000
     0.76436745    -0.01043259    -0.01043259     0.00000000
     0.76678633    -0.00728379    -0.00728379     0.00000000
     0.76920522    -0.00413216    -0.00413216     0.00000000
     0.77162410    -0.00097893    -0.00097893     0.00000000
     0.77404298     0.00217468     0.00217468     0.00000000
     0.77646187     0.00532744     0.00532744     0.00000000
     0.77888075     0.00847815     0.00847815     0.00000000
     0.78129964     0.01162557     0.01162557     0.00000000
     0.78371852     0.01476849     0.01476849     0.00000000
     0.78613741     0.01790569     0.01790569     0.00000000
