#           time (fs)    |     mu_x (e.angstrom)   |     mu_y (e.angstrom)   |     mu_z (e.angstrom)   |
        0.000000000000000       -0.000000000000000       -0.000000000000000        0.000000000000000
        0.002418884326505        0.000000000042525        0.000000003811381       -0.000041030992126
        0.004837768653010        0.000000000170264        0.000000015247342       -0.000082055887750
        0.007256652979515        0.000000000380919        0.000000034121540       -0.000122407320158
        0.009675537306020        0.000000000592305        0.000000053041595       -0.000142689400841
        0.012094421632525        0.000000000838648        0.000000075118243       -0.000161645123891
        0.014513305959030        0.000000000876973        0.000000078534179       -0.000140809569991
        0.016932190285535        0.000000000857517        0.000000076814649       -0.000118038988367
        0.019351074612040        0.000000000302665        0.000000027104971       -0.000036439651363
        0.021769958938545       -0.000000000445455       -0.000000039860960        0.000047625397927
        0.024188843265050       -0.000000002165805       -0.000000193947836        0.000208539383617
        0.026607727591555       -0.000000004254592       -0.000000380965969        0.000372338954561
        0.029026611918060       -0.000000007849388       -0.000000702916412        0.000629673235962
        0.031445496244565       -0.000000012023414       -0.000001076664485        0.000890170872183
        0.033864380571070       -0.000000018318591       -0.000001640440933        0.001259258468005
        0.036283264897575       -0.000000025434439       -0.000002277627810        0.001631615914948
        0.038702149224080       -0.000000035349636       -0.000003165583646        0.002125717860095
        0.041121033550585       -0.000000046351791       -0.000004150789996        0.002622998398110
        0.043539917877090       -0.000000060873917       -0.000005451302612        0.003253037558185
        0.045958802203595       -0.000000076767609       -0.000006874549254        0.003885943041215
        0.048377686530100       -0.000000096921841       -0.000008679422708        0.004660275713378
        0.050796570856605       -0.000000118743441       -0.000010633519412        0.005436921888387
        0.053215455183110       -0.000000145562283       -0.000013035213848        0.006361151224964
        0.055634339509615       -0.000000174347900       -0.000015612947000        0.007286885317125
        0.058053223836120       -0.000000208839001       -0.000018701696704        0.008363719955554
        0.060472108162625       -0.000000245591978       -0.000021992918716        0.009440983841559
        0.062890992489130       -0.000000288705433       -0.000025853804071        0.010670144407872
        0.065309876815635       -0.000000334363491       -0.000029942490593        0.011898385974133
        0.067728761142140       -0.000000386959382       -0.000034652531333        0.013276561357906
        0.070147645468645       -0.000000442362152       -0.000039613874187        0.014652195862946
        0.072566529795150       -0.000000505179085       -0.000045239212019        0.016173050351691
        0.074985414121655       -0.000000571036814       -0.000051136816180        0.017689472795134
        0.077404298448160       -0.000000644662208       -0.000057730054112        0.019343704318725
        0.079823182774665       -0.000000721526371       -0.000064613306049        0.020991352976589
        0.082242067101170       -0.000000806369219       -0.000072211069559        0.022766801861690
        0.084660951427675       -0.000000894605772       -0.000080112741750        0.024533272293616
        0.087079835754180       -0.000000990872574       -0.000088733523323        0.026415079079139
        0.089498720080685       -0.000001090638521       -0.000097667675865        0.028285287062746
        0.091917604407190       -0.000001198313006       -0.000107310019407        0.030256097095171
        0.094336488733695       -0.000001309536909       -0.000117270254336        0.032212488111184
        0.096755373060200       -0.000001428364117       -0.000127911329697        0.034252699838206
        0.099174257386705       -0.000001550731089       -0.000138869447113        0.036275501932327
        0.101593141713210       -0.000001680206287       -0.000150464057490        0.038363555059297
        0.104012026039715       -0.000001813147934       -0.000162369154831        0.040431071157621
        0.106430910366220       -0.000001952510746       -0.000174849211288        0.042543770137505
        0.108849794692725       -0.000002095200424       -0.000187627258399        0.044632705205095
        0.111268679019230       -0.000002243434459       -0.000200901746403        0.046745572911778
        0.113687563345735       -0.000002394788101       -0.000214455659459        0.048831390731498
        0.116106447672240       -0.000002550626235       -0.000228411112236        0.050919046629553
        0.118525331998745       -0.000002709308888       -0.000242621339367        0.052976350451262
        0.120944216325250       -0.000002871244263       -0.000257122822341        0.055012907132429
        0.123363100651755       -0.000003035682367       -0.000271848443123        0.057015838010707
        0.125781984978260       -0.000003201985013       -0.000286741042865        0.058975309626250
        0.128200869304765       -0.000003370384319       -0.000301821372956        0.060897955935493
        0.130619753631270       -0.000003539123226       -0.000316932173198        0.062754671820218
        0.133038637957775       -0.000003709492133       -0.000332188854436        0.064571483215038
        0.135457522284280       -0.000003878562438       -0.000347329370992        0.066300499877267
        0.137876406610785       -0.000004048740416       -0.000362568916611        0.067986698857348
        0.140295290937290       -0.000004215895292       -0.000377537952707        0.069564203501581
        0.142714175263795       -0.000004383585930       -0.000392554707001        0.071096187745515
        0.145133059590300       -0.000004546472629       -0.000407141580822        0.072499886601093
        0.147551943916805       -0.000004709280746       -0.000421721042989        0.073855615353125
        0.149970828243310       -0.000004865480161       -0.000435709130323        0.075065100301230
        0.152389712569815       -0.000005020952332       -0.000449631583416        0.076224458326431
        0.154808596896320       -0.000005168021352       -0.000462802110396        0.077221545645791
        0.157227481222825       -0.000005313689088       -0.000475846488572        0.078166678609358
        0.159646365549330       -0.000005449204945       -0.000487982502759        0.078935714092779
        0.162065249875835       -0.000005582629719       -0.000499930423496        0.079651329662530
        0.164484134202340       -0.000005704235462       -0.000510820866197        0.080179454885150
        0.166903018528845       -0.000005823054697       -0.000521460748967        0.080653084395958
        0.169321902855350       -0.000005928504899       -0.000530904547704        0.080930459533518
        0.171740787181855       -0.000006030478010       -0.000540035736942        0.081152675679943
        0.174159671508360       -0.000006117683759       -0.000547845834676        0.081172654971816
        0.176578555834865       -0.000006200737293       -0.000555282642770        0.081137241700774
        0.178997440161370       -0.000006267809545       -0.000561289879728        0.080896498416958
        0.181416324487875       -0.000006330080492       -0.000566865465375        0.080600569964858
        0.183835208814380       -0.000006375370844       -0.000570922230331        0.080099168556700
        0.186254093140885       -0.000006415247172       -0.000574492228869        0.079543235402957
        0.188672977467390       -0.000006437385162       -0.000576475799385        0.078784649380937
        0.191091861793895       -0.000006453542691       -0.000577921624732        0.077972629758976
        0.193510746120400       -0.000006451468779       -0.000577737120249        0.076963704733873
        0.195929630446905       -0.000006442903536       -0.000576968862757        0.075902881237926
        0.198348514773410       -0.000006415896972       -0.000574551740424        0.074653743469554
        0.200767399099915       -0.000006381952267       -0.000571510591299        0.073354665206175
        0.203186283426420       -0.000006329653155       -0.000566828621969        0.071878576912141
        0.205605167752925       -0.000006270040679       -0.000561488762789        0.070354908554708
        0.208024052079430       -0.000006192465645       -0.000554543433612        0.068668072125207
        0.210442936405935       -0.000006107280016       -0.000546913338742        0.066936392122743
        0.212861820732440       -0.000006004830976       -0.000537740639051        0.065057706251621
        0.215280705058945       -0.000005894557262       -0.000527863749337        0.063137257305168
        0.217699589385450       -0.000005768022958       -0.000516534307924        0.061088028867659
        0.220118473711955       -0.000005633536844       -0.000504489045701        0.059000424603643
        0.222537358038460       -0.000005484086913       -0.000491107599862        0.056804040873378
        0.224956242364965       -0.000005326647324       -0.000477006707822        0.054572933399795
        0.227375126691470       -0.000005155818830       -0.000461710897548        0.052254499888557
        0.229794011017975       -0.000004977052948       -0.000445700097206        0.049905213603201
        0.232212895344480       -0.000004786729453       -0.000428658591330        0.047491163414159
        0.234631779670985       -0.000004588610247       -0.000410914570400        0.045050301032157
        0.237050663997490       -0.000004380993655       -0.000392324545110        0.042567982129754
        0.239469548323995       -0.000004165810171       -0.000373052296824        0.040063009399377
        0.241888432650500       -0.000003943385715       -0.000353136300476        0.037540256607080
        0.244307316977005       -0.000003713706540       -0.000332565851452        0.034999072578500
        0.246726201303510       -0.000003479201438       -0.000311568102808        0.032463771410932
        0.249145085630015       -0.000003237831890       -0.000289950679240        0.029914271404404
        0.251563969956520       -0.000002994168350       -0.000268132858741        0.027393921016798
        0.253982854283025       -0.000002744102092       -0.000245736553173        0.024863559598425
        0.256401738609530       -0.000002494345444       -0.000223373158522        0.022384842189434
        0.258820622936035       -0.000002238711345       -0.000200478170968        0.019900203500059
        0.261239507262540       -0.000001986014223       -0.000177851518718        0.017488567430667
        0.263658391589045       -0.000001728019403       -0.000154745056190        0.015074950125150
        0.266077275915550       -0.000001475562987       -0.000132140020156        0.012754213822369
        0.268496160242055       -0.000001218433087       -0.000109110947549        0.010435237663338
        0.270915044568560       -0.000000969366507       -0.000086809532190        0.008227221048003
        0.273333928895065       -0.000000716284298       -0.000064142874576        0.006024461856154
        0.275752813221570       -0.000000473663348       -0.000042418727246        0.003948651601979
        0.278171697548075       -0.000000227706858       -0.000020390129040        0.001881310814585
        0.280590581874580        0.000000005566762        0.000000496901402       -0.000045434810119
        0.283009466201085        0.000000241485387        0.000021626651643       -0.001960820290416
        0.285428350527590        0.000000462723102        0.000041435800717       -0.003724521900698
        0.287847234854095        0.000000685916778        0.000061426069849       -0.005474324552185
        0.290266119180600        0.000000892699211        0.000079940679267       -0.007064083092498
        0.292685003507105        0.000001100761915        0.000098576004374       -0.008637780059107
        0.295103887833610        0.000001290990833        0.000115608173899       -0.010045925690371
        0.297522772160115        0.000001481849243        0.000132702886416       -0.011436241082712
        0.299941656486620        0.000001653794243        0.000148097654773       -0.012658426871938
        0.302360540813125        0.000001825753885        0.000163500013185       -0.013861418559016
        0.304779425139630        0.000001978092771        0.000177138973991       -0.014896657269828
        0.307198309466135        0.000002129877640        0.000190734711788       -0.015911746578316
        0.309617193792640        0.000002261729540        0.000202538979429       -0.016762389829313
        0.312036078119145        0.000002392514256        0.000214254184302       -0.017592333539108
        0.314454962445650        0.000002503464646        0.000224186635480       -0.018263993580236
        0.316873846772155        0.000002612898325        0.000233989886937       -0.018914798589352
        0.319292731098660        0.000002703015285        0.000242056616095       -0.019416213927298
        0.321711615425165        0.000002791236459        0.000249960321475       -0.019896995938831
        0.324130499751670        0.000002861077605        0.000256211262229       -0.020239843004098
        0.326549384078175        0.000002928719683        0.000262272145328       -0.020562631546484
        0.328968268404680        0.000002979329427        0.000266800825170       -0.020761285520998
        0.331387152731185        0.000003027516350        0.000271119537106       -0.020940778533972
        0.333806037057690        0.000003060413294        0.000274061948727       -0.021012027333503
        0.336224921384195        0.000003090745234        0.000276781787002       -0.021065299421035
        0.338643805710700        0.000003107899702        0.000278314376342       -0.021028015637158
        0.341062690037205        0.000003122428833        0.000279619114991       -0.020974184891043
        0.343481574363710        0.000003126230729        0.000279955903231       -0.020848961229760
        0.345900458690215        0.000003127427301        0.000280066754235       -0.020708820250767
        0.348319343016720        0.000003120644685        0.000279455628145       -0.020517574647616
        0.350738227343225        0.000003111353804        0.000278627371573       -0.020313192023511
        0.353157111669730        0.000003097082754        0.000277345593539       -0.020078749157771
        0.355575995996235        0.000003080472501        0.000275861930877       -0.019833048189056
        0.357994880322740        0.000003062079015        0.000274210936329       -0.019578704553606
        0.360413764649245        0.000003041580673        0.000272379137843       -0.019315026439638
        0.362832648975750        0.000003022635547        0.000270678703280       -0.019064106440854
        0.365251533302255        0.000003001876907        0.000268823635698       -0.018805765443732
        0.367670417628760        0.000002986084673        0.000267405514845       -0.018581176201563
        0.370089301955265        0.000002968817546        0.000265863149877       -0.018351014487015
        0.372508186281770        0.000002959940703        0.000265064288303       -0.018174807074775
        0.374927070608275        0.000002949963896        0.000264174805189       -0.017994756983768
        0.377345954934780        0.000002951743789        0.000264330254832       -0.017887701787424
        0.379764839261285        0.000002952822931        0.000264430860939       -0.017778363216822
        0.382183723587790        0.000002968898742        0.000265866524998       -0.017759546903704
        0.384602607914295        0.000002984684446        0.000267284127293       -0.017739787267932
        0.387021492240800        0.000003018511815        0.000270309472729       -0.017826238535731
        0.389440376567305        0.000003052457729        0.000273353339346       -0.017912822445255
        0.391859260893810        0.000003107228602        0.000278254218538       -0.018119173276706
        0.394278145220315        0.000003162510942        0.000283208773596       -0.018326428606239
        0.396697029546820        0.000003241076233        0.000290240498374       -0.018664617188133
        0.399115913873325        0.000003320516428        0.000297358394410       -0.019004143623262
        0.401534798199830        0.000003425313087        0.000306739204564       -0.019483164407692
        0.403953682526335        0.000003531305104        0.000316234815352       -0.019963589860782
        0.406372566852840        0.000003664289133        0.000328139879814       -0.020589295461447
        0.408791451179345        0.000003798733049        0.000340183351893       -0.021216084946425
        0.411210335505850        0.000003961319934        0.000354739434014       -0.021991043685436
        0.413629219832355        0.000004125563211        0.000369451427940       -0.022766364348846
        0.416048104158860        0.000004318577129        0.000386732336700       -0.023689776313996
        0.418466988485365        0.000004513364937        0.000404179578911       -0.024612421351403
        0.420885872811870        0.000004736997964        0.000424202515712       -0.025680094806696
        0.423304757138375        0.000004962433765        0.000444394269127       -0.026745467965817
        0.425723641464880        0.000005216216147        0.000467117165039       -0.027949856897163
        0.428142525791385        0.000005471733576        0.000490002711245       -0.029150018200674
        0.430561410117890        0.000005754515920        0.000515322632616       -0.030480320693592
        0.432980294444395        0.000006038862807        0.000540789841034       -0.031804092925042
        0.435399178770900        0.000006348810870        0.000568542522421       -0.033246408982450
        0.437818063097405        0.000006660046021        0.000596417562433       -0.034679543388873
        0.440236947423910        0.000006994648510        0.000626378105238       -0.036217089725196
        0.442655831750415        0.000007330151650        0.000656426336352       -0.037742488320670
        0.445074716076920        0.000007686241227        0.000688311089792       -0.039355866634503
        0.447493600403425        0.000008042736234        0.000720239142805       -0.040953857460729
        0.449912484729930        0.000008416523654        0.000753708761255       -0.042621371712023
        0.452331369056435        0.000008790114998        0.000787167800587       -0.044270032444826
        0.454750253382940        0.000009177236060        0.000821831448409       -0.045968049762917
        0.457169137709445        0.000009563458052        0.000856421582708       -0.047643574165982
        0.459588022035950        0.000009959032790        0.000891842234870       -0.049346923209033
        0.462006906362455        0.000010352911037        0.000927118020082       -0.051024024145042
        0.464425790688960        0.000010751614313        0.000962818784607       -0.052706424034774
        0.466844675015465        0.000011147738505        0.000998295741481       -0.054358766064127
        0.469263559341970        0.000011543880959        0.001033767108515       -0.055993278445049
        0.471682443668475        0.000011936487868        0.001068929155353       -0.057593932486118
