#     time (fs)  |  E_x (eV/ang)  | E_y (eV/ang) | E_z (eV/ang)
     0.00000000     0.00000000     0.00000000     0.00000000
     0.00241888     0.06223133     0.00000000     0.06223133
     0.00483777     0.12441261     0.00000000     0.12441261
     0.00725665     0.18649383     0.00000000     0.18649383
     0.00967554     0.24842507     0.00000000     0.24842507
     0.01209442     0.31015651     0.00000000     0.31015651
     0.01451331     0.37163852     0.00000000     0.37163852
     0.01693219     0.43282164     0.00000000     0.43282164
     0.01935107     0.49365667     0.00000000     0.49365667
     0.02176996     0.55409468     0.00000000     0.55409468
     0.02418884     0.61408706     0.00000000     0.61408706
     0.02660773     0.67358558     0.00000000     0.67358558
     0.02902661     0.73254237     0.00000000     0.73254237
     0.03144550     0.79091003     0.00000000     0.79091003
     0.03386438     0.84864160     0.00000000     0.84864160
     0.03628326     0.90569067     0.00000000     0.90569067
     0.03870215     0.96201135     0.00000000     0.96201135
     0.04112103     1.01755834     0.00000000     1.01755834
     0.04353992     1.07228697     0.00000000     1.07228697
     0.04595880     1.12615323     0.00000000     1.12615323
     0.04837769     1.17911379     0.00000000     1.17911379
     0.05079657     1.23112607     0.00000000     1.23112607
     0.05321546     1.28214823     0.00000000     1.28214823
     0.05563434     1.33213924     0.00000000     1.33213924
     0.05805322     1.38105889     0.00000000     1.38105889
     0.06047211     1.42886784     0.00000000     1.42886784
     0.06289099     1.47552764     0.00000000     1.47552764
     0.06530988     1.52100077     0.00000000     1.52100077
     0.06772876     1.56525065     0.00000000     1.56525065
     0.07014765     1.60824171     0.00000000     1.60824171
     0.07256653     1.64993935     0.00000000     1.64993935
     0.07498541     1.69031005     0.00000000     1.69031005
     0.07740430     1.72932134     0.00000000     1.72932134
     0.07982318     1.76694184     0.00000000     1.76694184
     0.08224207     1.80314130     0.00000000     1.80314130
     0.08466095     1.83789061     0.00000000     1.83789061
     0.08707984     1.87116182     0.00000000     1.87116182
     0.08949872     1.90292817     0.00000000     1.90292817
     0.09191760     1.93316412     0.00000000     1.93316412
     0.09433649     1.96184534     0.00000000     1.96184534
     0.09675537     1.98894877     0.00000000     1.98894877
     0.09917426     2.01445262     0.00000000     2.01445262
     0.10159314     2.03833637     0.00000000     2.03833637
     0.10401203     2.06058081     0.00000000     2.06058081
     0.10643091     2.08116805     0.00000000     2.08116805
     0.10884979     2.10008155     0.00000000     2.10008155
     0.11126868     2.11730607     0.00000000     2.11730607
     0.11368756     2.13282779     0.00000000     2.13282779
     0.11610645     2.14663420     0.00000000     2.14663420
     0.11852533     2.15871421     0.00000000     2.15871421
     0.12094422     2.16905810     0.00000000     2.16905810
     0.12336310     2.17765755     0.00000000     2.17765755
     0.12578198     2.18450565     0.00000000     2.18450565
     0.12820087     2.18959688     0.00000000     2.18959688
     0.13061975     2.19292717     0.00000000     2.19292717
     0.13303864     2.19449381     0.00000000     2.19449381
     0.13545752     2.19429557     0.00000000     2.19429557
     0.13787641     2.19233259     0.00000000     2.19233259
     0.14029529     2.18860645     0.00000000     2.18860645
     0.14271418     2.18312015     0.00000000     2.18312015
     0.14513306     2.17587811     0.00000000     2.17587811
     0.14755194     2.16688615     0.00000000     2.16688615
     0.14997083     2.15615149     0.00000000     2.15615149
     0.15238971     2.14368278     0.00000000     2.14368278
     0.15480860     2.12949003     0.00000000     2.12949003
     0.15722748     2.11358468     0.00000000     2.11358468
     0.15964637     2.09597949     0.00000000     2.09597949
     0.16206525     2.07668865     0.00000000     2.07668865
     0.16448413     2.05572765     0.00000000     2.05572765
     0.16690302     2.03311336     0.00000000     2.03311336
     0.16932190     2.00886396     0.00000000     2.00886396
     0.17174079     1.98299896     0.00000000     1.98299896
     0.17415967     1.95553916     0.00000000     1.95553916
     0.17657856     1.92650664     0.00000000     1.92650664
     0.17899744     1.89592475     0.00000000     1.89592475
     0.18141632     1.86381809     0.00000000     1.86381809
     0.18383521     1.83021247     0.00000000     1.83021247
     0.18625409     1.79513493     0.00000000     1.79513493
     0.18867298     1.75861368     0.00000000     1.75861368
     0.19109186     1.72067808     0.00000000     1.72067808
     0.19351075     1.68135865     0.00000000     1.68135865
     0.19592963     1.64068701     0.00000000     1.64068701
     0.19834851     1.59869586     0.00000000     1.59869586
     0.20076740     1.55541899     0.00000000     1.55541899
     0.20318628     1.51089119     0.00000000     1.51089119
     0.20560517     1.46514827     0.00000000     1.46514827
     0.20802405     1.41822703     0.00000000     1.41822703
     0.21044294     1.37016519     0.00000000     1.37016519
     0.21286182     1.32100142     0.00000000     1.32100142
     0.21528071     1.27077525     0.00000000     1.27077525
     0.21769959     1.21952708     0.00000000     1.21952708
     0.22011847     1.16729811     0.00000000     1.16729811
     0.22253736     1.11413036     0.00000000     1.11413036
     0.22495624     1.06006658     0.00000000     1.06006658
     0.22737513     1.00515026     0.00000000     1.00515026
     0.22979401     0.94942556     0.00000000     0.94942556
     0.23221290     0.89293730     0.00000000     0.89293730
     0.23463178     0.83573090     0.00000000     0.83573090
     0.23705066     0.77785238     0.00000000     0.77785238
     0.23946955     0.71934828     0.00000000     0.71934828
     0.24188843     0.66026565     0.00000000     0.66026565
     0.24430732     0.60065201     0.00000000     0.60065201
     0.24672620     0.54055531     0.00000000     0.54055531
     0.24914509     0.48002387     0.00000000     0.48002387
     0.25156397     0.41910638     0.00000000     0.41910638
     0.25398285     0.35785182     0.00000000     0.35785182
     0.25640174     0.29630947     0.00000000     0.29630947
     0.25882062     0.23452882     0.00000000     0.23452882
     0.26123951     0.17255954     0.00000000     0.17255954
     0.26365839     0.11045149     0.00000000     0.11045149
     0.26607728     0.04825461     0.00000000     0.04825461
     0.26849616    -0.01398107    -0.00000000    -0.01398107
     0.27091504    -0.07620552    -0.00000000    -0.07620552
     0.27333393    -0.13836867    -0.00000000    -0.13836867
     0.27575281    -0.20042055    -0.00000000    -0.20042055
     0.27817170    -0.26231124    -0.00000000    -0.26231124
     0.28059058    -0.32399097    -0.00000000    -0.32399097
     0.28300947    -0.38541013    -0.00000000    -0.38541013
     0.28542835    -0.44651933    -0.00000000    -0.44651933
     0.28784723    -0.50726943    -0.00000000    -0.50726943
     0.29026612    -0.56761156    -0.00000000    -0.56761156
     0.29268500    -0.62749719    -0.00000000    -0.62749719
     0.29510389    -0.68687817    -0.00000000    -0.68687817
     0.29752277    -0.74570674    -0.00000000    -0.74570674
     0.29994166    -0.80393558    -0.00000000    -0.80393558
     0.30236054    -0.86151786    -0.00000000    -0.86151786
     0.30477943    -0.91840728    -0.00000000    -0.91840728
     0.30719831    -0.97455808    -0.00000000    -0.97455808
     0.30961719    -1.02992511    -0.00000000    -1.02992511
     0.31203608    -1.08446383    -0.00000000    -1.08446383
     0.31445496    -1.13813039    -0.00000000    -1.13813039
     0.31687385    -1.19088162    -0.00000000    -1.19088162
     0.31929273    -1.24267510    -0.00000000    -1.24267510
     0.32171162    -1.29346917    -0.00000000    -1.29346917
     0.32413050    -1.34322298    -0.00000000    -1.34322298
     0.32654938    -1.39189653    -0.00000000    -1.39189653
     0.32896827    -1.43945066    -0.00000000    -1.43945066
     0.33138715    -1.48584713    -0.00000000    -1.48584713
     0.33380604    -1.53104863    -0.00000000    -1.53104863
     0.33622492    -1.57501880    -0.00000000    -1.57501880
     0.33864381    -1.61772228    -0.00000000    -1.61772228
     0.34106269    -1.65912472    -0.00000000    -1.65912472
     0.34348157    -1.69919284    -0.00000000    -1.69919284
     0.34590046    -1.73789441    -0.00000000    -1.73789441
     0.34831934    -1.77519829    -0.00000000    -1.77519829
     0.35073823    -1.81107449    -0.00000000    -1.81107449
     0.35315711    -1.84549416    -0.00000000    -1.84549416
     0.35557600    -1.87842962    -0.00000000    -1.87842962
     0.35799488    -1.90985437    -0.00000000    -1.90985437
     0.36041376    -1.93974314    -0.00000000    -1.93974314
     0.36283265    -1.96807190    -0.00000000    -1.96807190
     0.36525153    -1.99481787    -0.00000000    -1.99481787
     0.36767042    -2.01995952    -0.00000000    -2.01995952
     0.37008930    -2.04347665    -0.00000000    -2.04347665
     0.37250819    -2.06535034    -0.00000000    -2.06535034
     0.37492707    -2.08556300    -0.00000000    -2.08556300
     0.37734595    -2.10409837    -0.00000000    -2.10409837
     0.37976484    -2.12094154    -0.00000000    -2.12094154
     0.38218372    -2.13607898    -0.00000000    -2.13607898
     0.38460261    -2.14949850    -0.00000000    -2.14949850
     0.38702149    -2.16118931    -0.00000000    -2.16118931
     0.38944038    -2.17114201    -0.00000000    -2.17114201
     0.39185926    -2.17934860    -0.00000000    -2.17934860
     0.39427815    -2.18580248    -0.00000000    -2.18580248
     0.39669703    -2.19049845    -0.00000000    -2.19049845
     0.39911591    -2.19343274    -0.00000000    -2.19343274
     0.40153480    -2.19460300    -0.00000000    -2.19460300
     0.40395368    -2.19400827     0.00000000    -2.19400827
     0.40637257    -2.19164903     0.00000000    -2.19164903
     0.40879145    -2.18752719     0.00000000    -2.18752719
     0.41121034    -2.18164606     0.00000000    -2.18164606
     0.41362922    -2.17401037     0.00000000    -2.17401037
     0.41604810    -2.16462625     0.00000000    -2.16462625
     0.41846699    -2.15350127     0.00000000    -2.15350127
     0.42088587    -2.14064436     0.00000000    -2.14064436
     0.42330476    -2.12606586     0.00000000    -2.12606586
     0.42572364    -2.10977750     0.00000000    -2.10977750
     0.42814253    -2.09179238     0.00000000    -2.09179238
     0.43056141    -2.07212496     0.00000000    -2.07212496
     0.43298029    -2.05079106     0.00000000    -2.05079106
     0.43539918    -2.02780783     0.00000000    -2.02780783
     0.43781806    -2.00319377     0.00000000    -2.00319377
     0.44023695    -1.97696867     0.00000000    -1.97696867
     0.44265583    -1.94915361     0.00000000    -1.94915361
     0.44507472    -1.91977097     0.00000000    -1.91977097
     0.44749360    -1.88884438     0.00000000    -1.88884438
     0.44991248    -1.85639871     0.00000000    -1.85639871
     0.45233137    -1.82246005     0.00000000    -1.82246005
     0.45475025    -1.78705571     0.00000000    -1.78705571
     0.45716914    -1.75021414     0.00000000    -1.75021414
     0.45958802    -1.71196499     0.00000000    -1.71196499
     0.46200691    -1.67233902     0.00000000    -1.67233902
     0.46442579    -1.63136808     0.00000000    -1.63136808
     0.46684468    -1.58908514     0.00000000    -1.58908514
     0.46926356    -1.54552420     0.00000000    -1.54552420
     0.47168244    -1.50072029     0.00000000    -1.50072029
     0.47410133    -1.45470944     0.00000000    -1.45470944
     0.47652021    -1.40752866     0.00000000    -1.40752866
     0.47893910    -1.35921589     0.00000000    -1.35921589
     0.48135798    -1.30981000     0.00000000    -1.30981000
     0.48377687    -1.25935070     0.00000000    -1.25935070
     0.48619575    -1.20787859     0.00000000    -1.20787859
     0.48861463    -1.15543505     0.00000000    -1.15543505
     0.49103352    -1.10206228     0.00000000    -1.10206228
     0.49345240    -1.04780318     0.00000000    -1.04780318
     0.49587129    -0.99270140     0.00000000    -0.99270140
     0.49829017    -0.93680125     0.00000000    -0.93680125
     0.50070906    -0.88014769     0.00000000    -0.88014769
     0.50312794    -0.82278629     0.00000000    -0.82278629
     0.50554682    -0.76476316     0.00000000    -0.76476316
     0.50796571    -0.70612499     0.00000000    -0.70612499
     0.51038459    -0.64691893     0.00000000    -0.64691893
     0.51280348    -0.58719258     0.00000000    -0.58719258
     0.51522236    -0.52699400     0.00000000    -0.52699400
     0.51764125    -0.46637159     0.00000000    -0.46637159
     0.52006013    -0.40537410     0.00000000    -0.40537410
     0.52247901    -0.34405060     0.00000000    -0.34405060
     0.52489790    -0.28245040     0.00000000    -0.28245040
     0.52731678    -0.22062304     0.00000000    -0.22062304
     0.52973567    -0.15861825     0.00000000    -0.15861825
     0.53215455    -0.09648590     0.00000000    -0.09648590
     0.53457344    -0.03427594     0.00000000    -0.03427594
     0.53699232     0.02796158     0.00000000     0.02796158
     0.53941120     0.09017661     0.00000000     0.09017661
     0.54183009     0.15231912     0.00000000     0.15231912
     0.54424897     0.21433913     0.00000000     0.21433913
     0.54666786     0.27618676     0.00000000     0.27618676
     0.54908674     0.33781227     0.00000000     0.33781227
     0.55150563     0.39916610     0.00000000     0.39916610
     0.55392451     0.46019891     0.00000000     0.46019891
     0.55634340     0.52086160     0.00000000     0.52086160
     0.55876228     0.58110540     0.00000000     0.58110540
     0.56118116     0.64088185     0.00000000     0.64088185
     0.56360005     0.70014289     0.00000000     0.70014289
     0.56601893     0.75884084     0.00000000     0.75884084
     0.56843782     0.81692850     0.00000000     0.81692850
     0.57085670     0.87435915     0.00000000     0.87435915
     0.57327559     0.93108662     0.00000000     0.93108662
     0.57569447     0.98706527     0.00000000     0.98706527
     0.57811335     1.04225009     0.00000000     1.04225009
     0.58053224     1.09659669     0.00000000     1.09659669
     0.58295112     1.15006136     0.00000000     1.15006136
     0.58537001     1.20260111     0.00000000     1.20260111
     0.58778889     1.25417369     0.00000000     1.25417369
     0.59020778     1.30473761     0.00000000     1.30473761
     0.59262666     1.35425222     0.00000000     1.35425222
     0.59504554     1.40267768     0.00000000     1.40267768
     0.59746443     1.44997506     0.00000000     1.44997506
     0.59988331     1.49610631     0.00000000     1.49610631
     0.60230220     1.54103434     0.00000000     1.54103434
     0.60472108     1.58472301     0.00000000     1.58472301
     0.60713997     1.62713719     0.00000000     1.62713719
     0.60955885     1.66824277     0.00000000     1.66824277
     0.61197773     1.70800668     0.00000000     1.70800668
     0.61439662     1.74639694     0.00000000     1.74639694
     0.61681550     1.78338269     0.00000000     1.78338269
     0.61923439     1.81893418     0.00000000     1.81893418
     0.62165327     1.85302281     0.00000000     1.85302281
     0.62407216     1.88562118     0.00000000     1.88562118
     0.62649104     1.91670305     0.00000000     1.91670305
     0.62890992     1.94624344     0.00000000     1.94624344
     0.63132881     1.97421859     0.00000000     1.97421859
     0.63374769     2.00060600     0.00000000     2.00060600
     0.63616658     2.02538445     0.00000000     2.02538445
     0.63858546     2.04853400     0.00000000     2.04853400
     0.64100435     2.07003605     0.00000000     2.07003605
     0.64342323     2.08987330     0.00000000     2.08987330
     0.64584212     2.10802979     0.00000000     2.10802979
     0.64826100     2.12449093     0.00000000     2.12449093
     0.65067988     2.13924348     0.00000000     2.13924348
     0.65309877     2.15227556     0.00000000     2.15227556
     0.65551765     2.16357670     0.00000000     2.16357670
     0.65793654     2.17313782     0.00000000     2.17313782
     0.66035542     2.18095121     0.00000000     2.18095121
     0.66277431     2.18701060     0.00000000     2.18701060
     0.66519319     2.19131112     0.00000000     2.19131112
     0.66761207     2.19384930     0.00000000     2.19384930
     0.67003096     2.19462311     0.00000000     2.19462311
     0.67244984     2.19363192     0.00000000     2.19363192
     0.67486873     2.19087653     0.00000000     2.19087653
     0.67728761     2.18635915     0.00000000     2.18635915
     0.67970650     2.18008342     0.00000000     2.18008342
     0.68212538     2.17205439     0.00000000     2.17205439
     0.68454426     2.16227851     0.00000000     2.16227851
     0.68696315     2.15076365     0.00000000     2.15076365
     0.68938203     2.13751906     0.00000000     2.13751906
     0.69180092     2.12255539     0.00000000     2.12255539
     0.69421980     2.10588469     0.00000000     2.10588469
     0.69663869     2.08752036     0.00000000     2.08752036
     0.69905757     2.06747717     0.00000000     2.06747717
     0.70147645     2.04577123     0.00000000     2.04577123
     0.70389534     2.02242001     0.00000000     2.02242001
     0.70631422     1.99744228     0.00000000     1.99744228
     0.70873311     1.97085814     0.00000000     1.97085814
     0.71115199     1.94268895     0.00000000     1.94268895
     0.71357088     1.91295739     0.00000000     1.91295739
     0.71598976     1.88168735     0.00000000     1.88168735
     0.71840864     1.84890399     0.00000000     1.84890399
     0.72082753     1.81463367     0.00000000     1.81463367
     0.72324641     1.77890395     0.00000000     1.77890395
     0.72566530     1.74174358     0.00000000     1.74174358
     0.72808418     1.70318242     0.00000000     1.70318242
     0.73050307     1.66325151     0.00000000     1.66325151
     0.73292195     1.62198295     0.00000000     1.62198295
     0.73534084     1.57940992     0.00000000     1.57940992
     0.73775972     1.53556668     0.00000000     1.53556668
     0.74017860     1.49048848     0.00000000     1.49048848
     0.74259749     1.44421157     0.00000000     1.44421157
     0.74501637     1.39677317     0.00000000     1.39677317
     0.74743526     1.34821143     0.00000000     1.34821143
     0.74985414     1.29856541     0.00000000     1.29856541
     0.75227303     1.24787504     0.00000000     1.24787504
     0.75469191     1.19618108     0.00000000     1.19618108
     0.75711079     1.14352510     0.00000000     1.14352510
     0.75952968     1.08994946     0.00000000     1.08994946
     0.76194856     1.03549725     0.00000000     1.03549725
     0.76436745     0.98021224     0.00000000     0.98021224
     0.76678633     0.92413892     0.00000000     0.92413892
     0.76920522     0.86732236     0.00000000     0.86732236
     0.77162410     0.80980827     0.00000000     0.80980827
     0.77404298     0.75164291     0.00000000     0.75164291
     0.77646187     0.69287304     0.00000000     0.69287304
     0.77888075     0.63354595     0.00000000     0.63354595
     0.78129964     0.57370933     0.00000000     0.57370933
     0.78371852     0.51341131     0.00000000     0.51341131
     0.78613741     0.45270038     0.00000000     0.45270038
