#           time (fs)    |     mu_x (e.angstrom)   |     mu_y (e.angstrom)   |     mu_z (e.angstrom)   |
        0.000000000000000       -0.000000000000000       -0.000000000000000        0.000000000000000
        0.002418884326505       -0.000000003106026       -0.000000004028532       -0.000047366917346
        0.004837768653010       -0.000000012427756       -0.000000016117955       -0.000094762060171
        0.007256652979515       -0.000000027814987       -0.000000036074832       -0.000141390892011
        0.009675537306020       -0.000000036660934       -0.000000047546745       -0.000139766878834
        0.012094421632525       -0.000000044806168       -0.000000058111700       -0.000136653421104
        0.014513305959030       -0.000000014894642       -0.000000019317357       -0.000037855454248
        0.016932190285535        0.000000028930245        0.000000037518960        0.000063023689140
        0.019351074612040        0.000000160182112        0.000000207745288        0.000305325312058
        0.021769958938545        0.000000324664876        0.000000421066241        0.000550081029605
        0.024188843265050        0.000000642348346        0.000000833082011        0.000979486195811
        0.026607727591555        0.000001018181667        0.000001320509511        0.001411415657315
        0.029026611918060        0.000001627426447        0.000002110659782        0.002067933453130
        0.031445496244565        0.000002324685628        0.000003014952001        0.002726664128213
        0.033864380571070        0.000003347566669        0.000004341555429        0.003645909786268
        0.036283264897575        0.000004492476834        0.000005826410582        0.004566602888628
        0.038702149224080        0.000006064366233        0.000007865022814        0.005779066133110
        0.041121033550585        0.000007795530482        0.000010110180109        0.006991692935350
        0.043539917877090        0.000010060976180        0.000013048238781        0.008522090249729
        0.045958802203595        0.000012525149199        0.000016243984283        0.010050793746682
        0.048377686530100        0.000015633373930        0.000020274954913        0.011917515933889
        0.050796570856605        0.000018980877023        0.000024616154884        0.013780069143414
        0.053215455183110        0.000023081000809        0.000029933309877        0.015994734177605
        0.055634339509615        0.000027460883716        0.000035613106636        0.018202104955951
        0.058053223836120        0.000032696980851        0.000042403080026        0.020769224541699
        0.060472108162625        0.000038252042840        0.000049606395289        0.023325255162223
        0.062890992489130        0.000044758149442        0.000058042663338        0.026242021633700
        0.065309876815635        0.000051619936686        0.000066939660894        0.029143229548570
        0.067728761142140        0.000059515127306        0.000077176103073        0.032399427779581
        0.070147645468645        0.000067799025356        0.000087915766341        0.035634931979363
        0.072566529795150        0.000077182676769        0.000100080462175        0.039212978866409
        0.074985414121655        0.000086983215904        0.000112784442423        0.042764554106962
        0.077404298448160        0.000097930573007        0.000126973857181        0.046639665972310
        0.079823182774665        0.000109317060384        0.000141730744837        0.050481924895839
        0.082242067101170        0.000121875213190        0.000158004450929        0.054622410883820
        0.084660951427675        0.000134887799261        0.000174864615529        0.058723111771746
        0.087079835754180        0.000149072171537        0.000193240686913        0.063090789032864
        0.089498720080685        0.000163718449205        0.000212211820833        0.067411264647533
        0.091917604407190        0.000179509888602        0.000232663024775        0.071961988877745
        0.094336488733695        0.000195762112527        0.000253706512247        0.076457689634652
        0.096755373060200        0.000213104659450        0.000276157406869        0.081141992417800
        0.099174257386705        0.000230897660021        0.000299185623138        0.085763135035878
        0.101593141713210        0.000249697058396        0.000323510650491        0.090526957479036
        0.104012026039715        0.000268926910632        0.000348385276799        0.095219268335276
        0.106430910366220        0.000289049908518        0.000374407920400        0.100004778737557
        0.108849794692725        0.000309573400913        0.000400939339160        0.104710319449334
        0.111268679019230        0.000330847873040        0.000428432392324        0.109456801244532
        0.113687563345735        0.000352482805482        0.000456380204001        0.114114862555611
        0.116106447672240        0.000374698713571        0.000485067171576        0.118759657548851
        0.118525331998745        0.000397225037382        0.000514141850871        0.123307706430839
        0.120944216325250        0.000420136227910        0.000543699482684        0.127787197430006
        0.123363100651755        0.000443298024956        0.000573565167242        0.132161861447852
        0.125781984978260        0.000466624848070        0.000603627097179        0.136412477782880
        0.128200869304765        0.000490133130083        0.000633905477779        0.140550550218922
        0.130619753631270        0.000513565847916        0.000664066918572        0.144509779347608
        0.133038637957775        0.000537102141806        0.000694342176051        0.148349228332909
        0.135457522284280        0.000560305079592        0.000724165596997        0.151956616743838
        0.137876406610785        0.000583525749768        0.000753990308579        0.155437581699831
        0.140295290937290        0.000606142129022        0.000783012002017        0.158635708627874
        0.142714175263795        0.000628683373650        0.000811913918664        0.161701467661043
        0.145133059590300        0.000650340753408        0.000839651341508        0.164436875709831
        0.147551943916805        0.000671824198201        0.000867140918759        0.167034768208571
        0.149970828243310        0.000692140437872        0.000893100678076        0.169258835805182
        0.152389712569815        0.000712179238572        0.000918679225987        0.171341125339057
        0.154808596896320        0.000730768884551        0.000942365562798        0.173010867004360
        0.157227481222825        0.000748974237736        0.000965533866234        0.174535530698214
        0.159646365549330        0.000765455225604        0.000986457479695        0.175614312376606
        0.162065249875835        0.000781443177111        0.001006724728701        0.176545744201121
        0.164484134202340        0.000795443732178        0.001024411773731        0.177003902330133
        0.166903018528845        0.000808842163331        0.001041304635136        0.177313519192097
        0.169321902855350        0.000820007774702        0.001055305720590        0.177128873780377
        0.171740787181855        0.000830463439010        0.001068377376564        0.176795614886118
        0.174159671508360        0.000838463776491        0.001078276388304        0.175953868582807
        0.176578555834865        0.000845649253781        0.001087115365371        0.174964580263156
        0.178997440161370        0.000850184893036        0.001092537939111        0.173459597218248
        0.181416324487875        0.000853805324356        0.001096776552213        0.171809297219339
        0.183835208814380        0.000854614144183        0.001097398024855        0.169643257429040
        0.186254093140885        0.000854413609664        0.001096720265445        0.167335274566466
        0.188672977467390        0.000851276726189        0.001092272940688        0.164518701345273
        0.191091861793895        0.000847044129568        0.001086421645493        0.161564688365129
        0.193510746120400        0.000839791236012        0.001076701219797        0.158116348562425
        0.195929630446905        0.000831365563996        0.001065484367720        0.154536168026618
        0.198348514773410        0.000819879551473        0.001050355376012        0.150482846584278
        0.200767399099915        0.000807154383742        0.001033651374536        0.146304331573046
        0.203186283426420        0.000791375128464        0.001013051531262        0.141680483975334
        0.205605167752925        0.000774302284882        0.000990813370424        0.136939077350238
        0.208024052079430        0.000754229500271        0.000964756700320        0.131786365420977
        0.210442936405935        0.000732821725829        0.000937014871658        0.126524643289002
        0.212861820732440        0.000708516794034        0.000905593545791        0.120891361615754
        0.215280705058945        0.000682849398986        0.000872457645245        0.115158448451248
        0.217699589385450        0.000654436115154        0.000835842460943        0.109098850434236
        0.220118473711955        0.000624647507414        0.000797501418222        0.102949735021973
        0.222537358038460        0.000592311691249        0.000755940886222        0.096523269129201
        0.224956242364965        0.000558602760015        0.000712661788172        0.090018032060952
        0.227375126691470        0.000522590712201        0.000666479816108        0.083288500293790
        0.229794011017975        0.000485223045398        0.000618605317709        0.076491465155774
        0.232212895344480        0.000445838850837        0.000568197505540        0.069526116966266
        0.234631779670985        0.000405131793680        0.000516141848805        0.062504938570537
        0.237050663997490        0.000362733498457        0.000461970438396        0.055373514500058
        0.239469548323995        0.000319060085605        0.000406214126177        0.048198218516796
        0.241888432650500        0.000274054799440        0.000348801673491        0.040971958625634
        0.244307316977005        0.000227836618037        0.000289884871435        0.033713947745872
        0.246726201303510        0.000180674618063        0.000229806735117        0.026464580458526
        0.249145085630015        0.000132375682758        0.000168321500250        0.019195622742220
        0.251563969956520        0.000083543616959        0.000106197264327        0.011994350031595
        0.253982854283025        0.000033663360115        0.000042778722470        0.004785565362737
        0.256401738609530       -0.000016323330873       -0.000020737307154       -0.002297939769439
        0.258820622936035       -0.000067257830819       -0.000085420691230       -0.009377079197330
        0.261239507262540       -0.000117863137235       -0.000149649757193       -0.016275647218921
        0.263658391589045       -0.000169305549399       -0.000214906653771       -0.023158286728479
        0.266077275915550       -0.000219981610434       -0.000279156408535       -0.029808182824942
        0.268496160242055       -0.000271375213572       -0.000344283661679       -0.036431010260337
        0.270915044568560       -0.000321571368268       -0.000407859430011       -0.042772807853157
        0.273333928895065       -0.000372358217681       -0.000472153468523       -0.049076919412843
        0.275752813221570       -0.000421530219661       -0.000534369711420       -0.055056302459335
        0.278171697548075       -0.000471160448824       -0.000597138129959       -0.060987996019435
        0.280590581874580       -0.000518779672290       -0.000657329903798       -0.066556477814972
        0.283009466201085       -0.000566720756308       -0.000717903006265       -0.072067961637703
        0.285428350527590       -0.000612283220833       -0.000775437208344       -0.077183509246924
        0.287847234854095       -0.000658029029610       -0.000833179303614       -0.082233515389617
        0.290266119180600       -0.000701064074784       -0.000887465496480       -0.086861070405242
        0.292685003507105       -0.000744143547847       -0.000941785738352       -0.091415363727140
        0.295103887833610       -0.000784221995514       -0.000992286350340       -0.095527251761621
        0.297522772160115       -0.000824207277561       -0.001042648919212       -0.099559027135726
        0.299941656486620       -0.000860948928870       -0.001088888627314       -0.103135250258421
        0.302360540813125       -0.000897462814863       -0.001134822060279       -0.106625412400450
        0.304779425139630       -0.000930543141275       -0.001176396173685       -0.109653820606686
        0.307198309466135       -0.000963265691981       -0.001217501662429       -0.112591142798877
        0.309617193792640       -0.000992421593307       -0.001254083340475       -0.115067482503503
        0.312036078119145       -0.001021095796152       -0.001290041832195       -0.117448642384915
        0.314454962445650       -0.001046130314312       -0.001321387988824       -0.119376481839790
        0.316873846772155       -0.001070566680014       -0.001351965944117       -0.121205974326242
        0.319292731098660       -0.001091352574142       -0.001377921711932       -0.122596507739663
        0.321711615425165       -0.001111432576434       -0.001402975394898       -0.123886436998452
        0.324130499751670       -0.001127914682998       -0.001423477045123       -0.124758170959479
        0.326549384078175       -0.001143592966715       -0.001442955244486       -0.125527925172660
        0.328968268404680       -0.001155789287185       -0.001458031484357       -0.125906252733289
        0.331387152731185       -0.001167094588825       -0.001471976589871       -0.126182067119092
        0.333806037057690       -0.001175096067065       -0.001481748185741       -0.126098736544907
        0.336224921384195       -0.001182130811593       -0.001490295571266       -0.125913151753481
        0.338643805710700       -0.001186099783398       -0.001494973273820       -0.125405638504572
        0.341062690037205       -0.001189038341432       -0.001498348966799       -0.124796863048531
        0.343481574363710       -0.001189205659473       -0.001498229743774       -0.123907654985675
        0.345900458690215       -0.001188291270058       -0.001496746390242       -0.122918841796558
        0.348319343016720       -0.001184952128852       -0.001492208001741       -0.121694648912713
        0.350738227343225       -0.001180492514709       -0.001486259165995       -0.120373097420837
        0.353157111669730       -0.001174001022024       -0.001477753147415       -0.118863998564850
        0.355575995996235       -0.001166362746387       -0.001467806015806       -0.117260294871053
        0.357994880322740       -0.001157125309605       -0.001455849163264       -0.115518834948172
        0.360413764649245       -0.001146726946331       -0.001442435751784       -0.113685943678870
        0.362832648975750       -0.001135194564523       -0.001427600234286       -0.111766195668172
        0.365251533302255       -0.001122498775903       -0.001411307229300       -0.109758517964855
        0.367670417628760       -0.001109158350381       -0.001394209480236       -0.107715124771501
        0.370089301955265       -0.001094662989531       -0.001375666870330       -0.105587537544415
        0.372508186281770       -0.001080027787122       -0.001356955437714       -0.103474749186672
        0.374927070608275       -0.001064256163688       -0.001336824121575       -0.101281641239549
        0.377345954934780       -0.001048855587278       -0.001317166681133       -0.099152363136702
        0.379764839261285       -0.001032346055739       -0.001296125261105       -0.096946684022986
        0.382183723587790       -0.001016714895332       -0.001276195018200       -0.094851552179662
        0.384602607914295       -0.001000009943898       -0.001254926010836       -0.092683889658406
        0.387021492240800       -0.000984677297745       -0.001235387735686       -0.090670388313435
        0.389440376567305       -0.000968312331993       -0.001214563448715       -0.088588090014358
        0.391859260893810       -0.000953790400638       -0.001196059403623       -0.086699726821023
        0.394278145220315       -0.000938282428926       -0.001176327742415       -0.084746081186488
        0.396697029546820       -0.000925055394669       -0.001159463769307       -0.083021634204029
        0.399115913873325       -0.000910891831343       -0.001141434244662       -0.081235124940552
        0.401534798199830       -0.000899405040962       -0.001126766285415       -0.079707974639862
        0.403953682526335       -0.000887032847908       -0.001110996497733       -0.078121621781337
        0.406372566852840       -0.000877682517131       -0.001099017818284       -0.076819179906043
        0.408791451179345       -0.000867497903825       -0.001086000690480       -0.075459979173570
        0.411210335505850       -0.000860621557632       -0.001077130072207       -0.074403224667111
        0.413629219832355       -0.000852960454308       -0.001067282095024       -0.073291695125790
        0.416048104158860       -0.000848828307574       -0.001061853243354       -0.072494825463067
        0.418466988485365       -0.000843957815414       -0.001055503981885       -0.071644673555668
        0.420885872811870       -0.000842765283780       -0.001053756382680       -0.071114877742988
        0.423304757138375       -0.000840876290242       -0.001051139472265       -0.070532783666237
        0.425723641464880       -0.000842737801728       -0.001053210901610       -0.070270140943887
        0.428142525791385       -0.000843938928740       -0.001054456735221       -0.069955671076659
        0.430561410117890       -0.000848883182986       -0.001060377598433       -0.069953177030897
        0.432980294444395       -0.000853196211243       -0.001065507876852       -0.069898823783311
        0.435399178770900       -0.000861163006112       -0.001075197518577       -0.070142543209989
        0.437818063097405       -0.000868519890864       -0.001084121799977       -0.070333891300402
        0.440236947423910       -0.000879358606217       -0.001097386890060       -0.070803234823728
        0.442655831750415       -0.000889600169611       -0.001109901237869       -0.071219250669517
        0.445074716076920       -0.000903069966302       -0.001126436298285       -0.071887369867790
        0.447493600403425       -0.000915946319354       -0.001142224086582       -0.072500808555267
        0.449912484729930       -0.000931718078755       -0.001161614184144       -0.073335102236736
        0.452331369056435       -0.000946890793326       -0.001180249079172       -0.074113024468916
        0.454750253382940       -0.000964550789872       -0.001201974667965       -0.075075746823443
        0.457169137709445       -0.000981596808417       -0.001222925763829       -0.075980136376450
        0.459588022035950       -0.001000652075533       -0.001246369621340       -0.077029096040401
        0.462006906362455       -0.001019069314561       -0.001269008668262       -0.078017566624250
        0.464425790688960       -0.001038954633531       -0.001293464830804       -0.079106904263895
        0.466844675015465       -0.001058169206378       -0.001317075456422       -0.080133483304130
        0.469263559341970       -0.001078255618815       -0.001341760023349       -0.081214514162125
        0.471682443668475       -0.001097630574805       -0.001365548811943       -0.082230489907051
