#           time (fs)       | force (atom_1) (H/b)   |  force (atom_2) (H/b)  |           ...          |  force (atom_N) (H/b)  |
        0.000000000000000       -0.000000000000000       -0.000000000000000       -0.001977038000788       -0.000000000000000       -0.000000000000000        0.001977038000788
        0.120944216325250        0.000008700532326       -0.000040621879049       -0.006631461676622       -0.000008700532326        0.000040621878265        0.006631461676622
        0.241888432650500        0.000030143681710       -0.000151025717957       -0.011390565865849       -0.000030143681710        0.000151025721869        0.011390565865849
        0.362832648975750        0.000064805531677       -0.000312490125657       -0.016188501251898       -0.000064805531677        0.000312490117008        0.016188501251898
        0.483776865301000        0.000112769136599       -0.000492374117695       -0.020952052977035       -0.000112769136599        0.000492374129429        0.020952052977035
        0.604721081626250        0.000173714769927       -0.000700544449660       -0.025610062300696       -0.000173714769927        0.000700544440569        0.025610062300696
        0.725665297951500        0.000246695030680       -0.000987502553596       -0.030067114760879       -0.000246695030680        0.000987502550854        0.030067114760879
        0.846609514276750        0.000330174828295       -0.001381449847347       -0.034228096706742       -0.000330174828295        0.001381449870323        0.034228096706742
        0.967553730602000        0.000422004593751       -0.001833352403724       -0.037997762293168       -0.000422004593751        0.001833352359711        0.037997762293168
        1.088497946927250        0.000519541455068       -0.002247685946421       -0.041292003419757       -0.000519541455068        0.002247686001561        0.041292003419757
        1.209442163252500        0.000619675178810       -0.002578827938247       -0.044034771353274       -0.000619675178810        0.002578827888632        0.044034771353274
        1.330386379577750        0.000718878726776       -0.002882498004540       -0.046157771557117       -0.000718878726776        0.002882498030960        0.046157771557117
        1.451330595903000        0.000813273291510       -0.003258122433161       -0.047600664109102       -0.000813273291510        0.003258122442578        0.047600664109102
        1.572274812228250        0.000898796826015       -0.003725001846337       -0.048316290617674       -0.000898796826015        0.003725001800464        0.048316290617674
        1.693219028553500        0.000971573705571       -0.004168004711450       -0.048283169390276       -0.000971573705571        0.004168004780437        0.048283169390276
        1.814163244878750        0.001028255456856       -0.004425474946836       -0.047511128300534       -0.001028255456856        0.004425474875227        0.047511128300534
        1.935107461204000        0.001066087133972       -0.004444531076696       -0.046032769756491       -0.001066087133972        0.004444531130876        0.046032769756491
        2.056051677529250        0.001082803257879       -0.004350054354790       -0.043891249806762       -0.001082803257879        0.004350054332046        0.043891249806762
        2.176995893854500        0.001076629349699       -0.004329664879992       -0.041136507071240       -0.001076629349699        0.004329664870747        0.041136507071240
        2.297940110179750        0.001046257051081       -0.004430799728397       -0.037821987995299       -0.001046257051081        0.004430799756408        0.037821987995299
        2.418884326505000        0.000991611806498       -0.004475729904535       -0.034029806476814       -0.000991611806498        0.004475729870568        0.034029806476814
        2.539828542830250        0.000913606846503       -0.004209856493157       -0.029855791557246       -0.000913606846503        0.004209856526572        0.029855791557246
        2.660772759155500        0.000814200073916       -0.003575528807050       -0.025408441336328       -0.000814200073916        0.003575528781770        0.025408441336328
        2.781716975480750        0.000695925489585       -0.002823153720198       -0.020792732150568       -0.000695925489585        0.002823153728382        0.020792732150568
        2.902661191806000        0.000560920957539       -0.002304391426068       -0.016083644313285       -0.000560920957539        0.002304391428425        0.016083644313285
        3.023605408131250        0.000411734684285       -0.002109003307199       -0.011354873612207       -0.000411734684285        0.002109003305778        0.011354873612207
        3.144549624456500        0.000251032416137       -0.001916171090554       -0.006671876632644       -0.000251032416137        0.001916171096136        0.006671876632644
        3.265493840781750        0.000082732948359       -0.001287179089468       -0.002123004056501       -0.000082732948359        0.001287179065587        0.002123004056501
        3.386438057107000       -0.000089904451162       -0.000149116018840        0.002231229843589        0.000089904451162        0.000149116046123       -0.002231229843589
        3.507382273432250       -0.000266279676425        0.001029603790404        0.006401295826208        0.000266279676425       -0.001029603801297       -0.006401295826208
        3.628326489757500       -0.000444480352196        0.001641018344769        0.010365036552222        0.000444480352196       -0.001641018352547       -0.010365036552222
        3.749270706082750       -0.000623833192769        0.001617781730266        0.014130123627599        0.000623833192769       -0.001617781711303       -0.014130123627599
        3.870214922408000       -0.000797905012513        0.001605152080853        0.017575669971581        0.000797905012513       -0.001605152119692       -0.017575669971581
        3.991159138733250       -0.000959884330269        0.002357034864414        0.020584654863269        0.000959884330269       -0.002357034806706       -0.020584654863269
        4.112103355058500       -0.001108684382731        0.003845566181262        0.023170610980692        0.001108684382731       -0.003845566248236       -0.023170610980692
        4.233047571383750       -0.001249150626510        0.005096264086342        0.025465561771592        0.001249150626510       -0.005096264055008       -0.025465561771592
        4.353991787709000       -0.001392742465072        0.005161521752155        0.027719676941696        0.001392742465072       -0.005161521714467       -0.027719676941696
        4.474936004034250       -0.001529081574216        0.004222844804733        0.029734831154707        0.001529081574216       -0.004222844874599       -0.029734831154707
        4.595880220359500       -0.001636443901438        0.003654844142285        0.031114511328642        0.001636443901438       -0.003654844111143       -0.031114511328642
        4.716824436684750       -0.001698331735608        0.004592128470125        0.031593243432468        0.001698331735608       -0.004592128508417       -0.031593243432468
        4.837768653010000       -0.001730273119541        0.006505395586188        0.031510423750719        0.001730273119541       -0.006505395498481       -0.031510423750719
        4.958712869335250       -0.001784864790333        0.007540722149699        0.031838168233332        0.001784864790333       -0.007540722194375       -0.031838168233332
        5.079657085660500       -0.001866956635470        0.006378028323274        0.032635811942308        0.001866956635470       -0.006378028383917       -0.032635811942308
        5.200601301985750       -0.001924573207704        0.003966872225224        0.032984281078744        0.001924573207704       -0.003966872185363       -0.032984281078744
        5.321545518311000       -0.001869292303100        0.002701785318531        0.031422406180545        0.001869292303100       -0.002701785293172       -0.031422406180545
        5.442489734636251       -0.001695951481539        0.003917363436989        0.027972179706710        0.001695951481539       -0.003917363425956       -0.027972179706710
        5.563433950961501       -0.001536235741565        0.006263353579463        0.024869537013483        0.001536235741565       -0.006263353617948       -0.024869537013483
        5.684378167286750       -0.001496276156482        0.006726181363825        0.023782169776663        0.001496276156482       -0.006726181363051       -0.023782169776663
        5.805322383612000       -0.001556649828178        0.003952756987818        0.024298613613410        0.001556649828178       -0.003952757005645       -0.024298613613410
        5.926266599937250       -0.001493577331395       -0.000335468092913        0.022902320528817        0.001493577331395        0.000335468049979       -0.022902320528817
        6.047210816262500       -0.001140271808039       -0.002744681263334        0.017179973078058        0.001140271808039        0.002744681506794       -0.017179973078058
        6.168155032587750       -0.000592770580563       -0.001699333926857        0.008777205727593        0.000592770580563        0.001699333744369       -0.008777205727593
        6.289099248913001       -0.000134330992478        0.000674206052383        0.001955186352983        0.000134330992478       -0.000674206173528       -0.001955186352983
        6.410043465238251       -0.000036599574263        0.000827718052541        0.000523735473811        0.000036599574263       -0.000827717975823       -0.000523735473811
        6.530987681563500       -0.000155859681253       -0.003092726077593        0.002193161753406        0.000155859681253        0.003092726296370       -0.002193161753406
        6.651931897888750       -0.000125911126481       -0.008885806252408        0.001742518647457        0.000125911126481        0.008885806217889       -0.001742518647457
        6.772876114214000        0.000390453828514       -0.012689968941583       -0.005315366300202       -0.000390453828514        0.012689968575972        0.005315366300202
        6.893820330539250        0.001313999496388       -0.012570821155683       -0.017598802892205       -0.001313999496388        0.012570821442188        0.017598802892205
        7.014764546864500        0.002116107956300       -0.010201040182066       -0.027888514897998       -0.002116107956300        0.010201040190818        0.027888514897998
        7.135708763189751        0.002363911128977       -0.009621706681256       -0.030661673554464       -0.002363911128977        0.009621706673667        0.030661673554464
        7.256652979515001        0.001961588994512       -0.012605338146462       -0.025045547271016       -0.001961588994512        0.012605338238310        0.025045547271016
        7.377597195840250        0.001496650156891       -0.017729647670868       -0.018814173746087       -0.001496650156891        0.017729647427253        0.018814173746087
        7.498541412165500        0.001610407335991       -0.021141869388201       -0.019935718974347       -0.001610407335991        0.021141868921672        0.019935718974347
        7.619485628490750        0.002485806143939       -0.020734287508026       -0.030310176320360       -0.002485806143939        0.020734288771363        0.030310176320360
        7.740429844816000        0.003549943266928       -0.018095861890256       -0.042644817785270       -0.003549943266928        0.018095861345674        0.042644817785270
        7.861374061141250        0.003781914671997       -0.016302191694683       -0.044769644752403       -0.003781914671997        0.016302191627626        0.044769644752403
        7.982318277466501        0.002954391582398       -0.017774703475707       -0.034472682798066       -0.002954391582398        0.017774701884219        0.034472682798066
        8.103262493791750        0.001890831697453       -0.021247412903249       -0.021752408299616       -0.001890831697453        0.021247414540081        0.021752408299616
        8.224206710117000        0.002053148222015       -0.024289395099330       -0.023293705902854       -0.002053148222015        0.024289397781425        0.023293705902854
        8.345150926442249        0.003634697084413       -0.024600057781313       -0.040679009696660       -0.003634697084413        0.024600053979695        0.040679009696660
        8.466095142767500        0.004784363040516       -0.021255381858934       -0.052836435794685       -0.004784363040516        0.021255380717011        0.052836435794685
        8.587039359092751        0.003921286915620       -0.017539701358812       -0.042743709593138       -0.003921286915620        0.017539701461112        0.042743709593138
        8.707983575418000        0.002456774680665       -0.019970290153997       -0.026440701326661       -0.002456774680665        0.019970291734509        0.026440701326661
        8.828927791743251        0.003918511138016       -0.031792266354487       -0.041651080479119       -0.003918511138016        0.031792275554467        0.041651080479119
        8.949872008068500        0.007427178146723       -0.038995753300167       -0.077994500785723       -0.007427178146723        0.038995751117864        0.077994500785723
        9.070816224393750        0.007222297447129       -0.024125290146658       -0.074953554993829       -0.007222297447129        0.024125269933832        0.074953554993829
        9.191760440718999        0.004395006460718       -0.010288127186482       -0.045092011140023       -0.004395006460718        0.010288131020841        0.045092011140023
        9.312704657044250        0.007359681818081       -0.034788290093879       -0.074674800243860       -0.007359681818081        0.034788289203565        0.074674800243860
        9.433648873369501        0.011029297547581       -0.050720155875115       -0.110712055310244       -0.011029297547581        0.050720150275819        0.110712055310244
        9.554593089694750        0.005706411556610       -0.009513378030111       -0.056689619348650       -0.005706411556610        0.009513410409004        0.056689619348650
        9.675537306020001        0.004780544128814       -0.003879026733697       -0.047019207602055       -0.004780544128814        0.003879070757219        0.047019207602055
        9.796481522345250        0.007583610807878       -0.037184571461055       -0.073874856846324       -0.007583610807878        0.037184564388440        0.073874856846324
        9.917425738670500        0.000733378753612       -0.011890434365265       -0.007078386184915       -0.000733378753612        0.011890424987435        0.007078386184915
       10.038369954995749        0.001562398214692       -0.006645380262584       -0.014946536248753       -0.001562398214692        0.006645382544159        0.014946536248753
       10.159314171321000        0.001222667722455       -0.011831017106809       -0.011597143197153       -0.001222667722455        0.011831029690674        0.011597143197153
       10.280258387646251       -0.000796872179125       -0.011701066313172        0.007496655897688        0.000796872179125        0.011701084846227       -0.007496655897688
       10.401202603971500        0.004299633269375       -0.017019643177457       -0.040131187303633       -0.004299633269375        0.017019670356795        0.040131187303633
       10.522146820296751       -0.000432305953873        0.018244676039233        0.004004444094930        0.000432305953873       -0.018244673184703       -0.004004444094930
       10.643091036622000        0.005568684970950       -0.025792329911043       -0.051206804387184       -0.005568684970950        0.025792322156658        0.051206804387184
       10.764035252947250       -0.000987176353974        0.006723932713084        0.009013900332143        0.000987176353974       -0.006723930614734       -0.009013900332143
       10.884979469272501        0.002096860936465       -0.007317488823787       -0.019017104694303       -0.002096860936465        0.007317505178167        0.019017104694303
       11.005923685597750       -0.002644852820384       -0.002762339722161        0.023830948124927        0.002644852820384        0.002762349854119       -0.023830948124927
       11.126867901923001        0.002199025028479       -0.013974181762200       -0.019689603605885       -0.002199025028479        0.013974180559937        0.019689603605885
       11.247812118248250       -0.002455517714391        0.026500922656076        0.021853111861302        0.002455517714391       -0.026500915230237       -0.021853111861302
       11.368756334573501        0.003497449376524       -0.016689458468197       -0.030943991497296       -0.003497449376524        0.016689462826149        0.030943991497296
       11.489700550898750       -0.003386394637182        0.019108381851091        0.029792304516218        0.003386394637182       -0.019108381493816       -0.029792304516218
       11.610644767224001        0.000476308191885       -0.004742298495240       -0.004167529868767       -0.000476308191885        0.004742301040458        0.004167529868767
       11.731588983549251       -0.003113369943673        0.001120314399675        0.027097122122727        0.003113369943673       -0.001120295178420       -0.027097122122727
       11.852533199874500       -0.000430421735589        0.012763204199424        0.003727019710037        0.000430421735589       -0.012763161325322       -0.003727019710037
       11.973477416199751       -0.000191509347103        0.009383944284469        0.001650065779743        0.000191509347103       -0.009383910201817       -0.001650065779743
       12.094421632525000       -0.003260482658176        0.010847428273176        0.027957777991370        0.003260482658176       -0.010847420203847       -0.027957777991370
       12.215365848850251       -0.000305112635870        0.001880567582969        0.002604066910443        0.000305112635870       -0.001880569373610       -0.002604066910443
       12.336310065175500       -0.004643011246344        0.012427464779091        0.039447658541758        0.004643011246344       -0.012427456962940       -0.039447658541758
       12.457254281500751       -0.000297447015132        0.009566875512924        0.002516028475909        0.000297447015132       -0.009566840775450       -0.002516028475909
       12.578198497826001       -0.001433846115043        0.017643383397752        0.012076593833965        0.001433846115043       -0.017643344115629       -0.012076593833965
       12.699142714151250       -0.004593952451756        0.011539914823348        0.038531303299962        0.004593952451756       -0.011539904185591       -0.038531303299962
       12.820086930476501       -0.000812970017949        0.004401572104481        0.006790991534006        0.000812970017949       -0.004401574067282       -0.006790991534006
       12.941031146801750       -0.003876312629574        0.016113659745666        0.032251687239527        0.003876312629574       -0.016113654710302       -0.032251687239527
       13.061975363127001       -0.002740539430313        0.022305257614658        0.022713596632881        0.002740539430313       -0.022305236360174       -0.022713596632881
       13.182919579452250       -0.000574515021226        0.006504067961699        0.004743577835685        0.000574515021226       -0.006504047412556       -0.004743577835685
       13.303863795777501       -0.005609702081297        0.013438358624714        0.046146215059819        0.005609702081297       -0.013438365805398       -0.046146215059819
       13.424808012102751       -0.002829831150855        0.021426613605648        0.023194399970489        0.002829831150855       -0.021426631836880       -0.023194399970489
