#           time (fs)    |     mu_x (e.angstrom)   |     mu_y (e.angstrom)   |     mu_z (e.angstrom)   |
        0.000000000000000       -0.000000000000000       -0.000000000000000        0.000000000000000
        0.002418884326505        0.000000000154600       -0.000000000618359       -0.000005963567615
        0.004837768653010        0.000000000619975       -0.000000002471602       -0.000011910079969
        0.007256652979515        0.000000001385061       -0.000000005527787       -0.000017758182340
        0.009675537306020        0.000000002455536       -0.000000009789284       -0.000023578164519
        0.012094421632525        0.000000003798149       -0.000000015151899       -0.000029193669043
        0.014513305959030        0.000000005431815       -0.000000021654569       -0.000034759231934
        0.016932190285535        0.000000007290890       -0.000000029080180       -0.000040006539242
        0.019351074612040        0.000000009415223       -0.000000037534889       -0.000045172052893
        0.021769958938545        0.000000011697471       -0.000000046651587       -0.000049900162531
        0.024188843265050        0.000000014205620       -0.000000056632363       -0.000054505725876
        0.026607727591555        0.000000016782574       -0.000000066928001       -0.000058552033552
        0.029026611918060        0.000000019530958       -0.000000077862444       -0.000062427649057
        0.031445496244565        0.000000022237436       -0.000000088678503       -0.000065622394961
        0.033864380571070        0.000000025044879       -0.000000099844322       -0.000068592757568
        0.036283264897575        0.000000027679057       -0.000000110376214       -0.000070764026714
        0.038702149224080        0.000000030327624       -0.000000120904590       -0.000072653818697
        0.041121033550585        0.000000032652884       -0.000000130209005       -0.000073632977652
        0.043539917877090        0.000000034890575       -0.000000139095307       -0.000074272545306
        0.045958802203595        0.000000036639209       -0.000000146104996       -0.000073899985309
        0.048377686530100        0.000000038184557       -0.000000152227122       -0.000073131260208
        0.050796570856605        0.000000039063378       -0.000000155773267       -0.000071262305048
        0.053215455183110        0.000000039611972       -0.000000157917644       -0.000068944822256
        0.055634339509615        0.000000039309801       -0.000000156759698       -0.000065455650538
        0.058053223836120        0.000000038542667       -0.000000153654701       -0.000061472508895
        0.060472108162625        0.000000036739599       -0.000000146517330       -0.000056265934833
        0.062890992489130        0.000000034333320       -0.000000136873616       -0.000050529540505
        0.065309876815635        0.000000030711611       -0.000000122490097       -0.000043540495226
        0.067728761142140        0.000000026349982       -0.000000105047084       -0.000035997929254
        0.070147645468645        0.000000020606325       -0.000000082208260       -0.000027198485985
        0.072566529795150        0.000000013993295       -0.000000055785707       -0.000017836339676
        0.074985414121655        0.000000005852210       -0.000000023393345       -0.000007240131111
        0.077404298448160       -0.000000003274216        0.000000013053222        0.000003911340216
        0.079823182774665       -0.000000014046244        0.000000055930051        0.000016245455614
        0.082242067101170       -0.000000025899514        0.000000103251564        0.000029108999791
        0.084660951427675       -0.000000039479526        0.000000157318651        0.000043074153881
        0.087079835754180       -0.000000054209877        0.000000216114050        0.000057523135646
        0.089498720080685       -0.000000070704008        0.000000281794513        0.000072962665276
        0.091917604407190       -0.000000088384092        0.000000352353436        0.000088819735506
        0.094336488733695       -0.000000107813679        0.000000429732339        0.000105526493673
        0.096755373060200       -0.000000128424954        0.000000511980874        0.000122563403276
        0.099174257386705       -0.000000150713674        0.000000600753954        0.000140280243802
        0.101593141713210       -0.000000174134065        0.000000694205439        0.000158218869149
        0.104012026039715       -0.000000199096597        0.000000793633896        0.000176640358524
        0.106430910366220       -0.000000225089911        0.000000897346740        0.000195154980839
        0.108849794692725       -0.000000252422608        0.000001006220061        0.000213930365636
        0.111268679019230       -0.000000280630205        0.000001118764517        0.000232651220501
        0.113687563345735       -0.000000309904248        0.000001235373174        0.000251388652000
        0.116106447672240       -0.000000339839410        0.000001354808895        0.000269906737703
        0.118525331998745       -0.000000370496875        0.000001476928674        0.000288178727643
        0.120944216325250       -0.000000401542292        0.000001600794698        0.000306051832875
        0.123363100651755       -0.000000432895520        0.000001725684175        0.000323401886098
        0.125781984978260       -0.000000464304265        0.000001851002800        0.000340161769184
        0.128200869304765       -0.000000495538857        0.000001975415284        0.000356112110929
        0.130619753631270       -0.000000526439131        0.000002098710989        0.000371272734844
        0.133038637957775       -0.000000556620821        0.000002218921920        0.000385333023168
        0.135457522284280       -0.000000586024693        0.000002336256202        0.000398399723667
        0.137876406610785       -0.000000614110267        0.000002448106677        0.000410076611466
        0.140295290937290       -0.000000640926527        0.000002555129297        0.000420556050330
        0.142714175263795       -0.000000665778861        0.000002654086020        0.000429363437314
        0.145133059590300       -0.000000688830019        0.000002746102762        0.000436774169505
        0.147551943916805       -0.000000709237202        0.000002827334293        0.000442243962760
        0.149970828243310       -0.000000727280547        0.000002899390922        0.000446127425763
        0.152389712569815       -0.000000741978964        0.000002957859687        0.000447820608761
        0.154808596896320       -0.000000753731496        0.000003004841349        0.000447752325066
        0.157227481222825       -0.000000761432610        0.000003035410417        0.000445270119565
        0.159646365549330       -0.000000765599544        0.000003052155274        0.000440870889493
        0.162065249875835       -0.000000765020023        0.000003049708462        0.000433865783228
        0.164484134202340       -0.000000760326447        0.000003031133907        0.000424812635629
        0.166903018528845       -0.000000750221166        0.000002990707350        0.000412999041253
        0.169321902855350       -0.000000735446335        0.000002931946722        0.000399035704228
        0.171740787181855       -0.000000714643671        0.000002848869596        0.000382200012009
        0.174159671508360       -0.000000688657302        0.000002745416881        0.000363146665014
        0.176578555834865       -0.000000656096058        0.000002615458593        0.000341156453504
        0.178997440161370       -0.000000617895913        0.000002463318255        0.000316918526168
        0.181416324487875       -0.000000572663099        0.000002282839062        0.000289730701514
        0.183835208814380       -0.000000521413048        0.000002078677779        0.000260306493277
        0.186254093140885       -0.000000462781677        0.000001844779485        0.000227974139105
        0.188672977467390       -0.000000397849362        0.000001586076314        0.000193461047398
        0.191091861793895       -0.000000325315380        0.000001296749462        0.000156138783249
        0.193510746120400       -0.000000246308567        0.000000981940739        0.000116737946204
        0.195929630446905       -0.000000159625944        0.000000636204531        0.000074685613044
        0.198348514773410       -0.000000066426583        0.000000264819664        0.000030704795591
        0.200767399099915        0.000000034360372       -0.000000137149238       -0.000015710688048
        0.203186283426420        0.000000141565337       -0.000000564364959       -0.000063856108887
        0.205605167752925        0.000000256093428       -0.000001021118631       -0.000114160847762
        0.208024052079430        0.000000376785484       -0.000001502098089       -0.000165948911729
        0.210442936405935        0.000000504348797       -0.000002010822331       -0.000219564186765
        0.212861820732440        0.000000637656449       -0.000002542091234       -0.000274369472477
        0.215280705058945        0.000000777188138       -0.000003098532981       -0.000330616005133
        0.217699589385450        0.000000921871553       -0.000003675148650       -0.000387714887578
        0.220118473711955        0.000001071932102       -0.000004273569176       -0.000445819237082
        0.222537358038460        0.000001226374625       -0.000004889086711       -0.000504397283390
        0.224956242364965        0.000001385147339       -0.000005522243660       -0.000563500358355
        0.227375126691470        0.000001547354582       -0.000006168712314       -0.000622661824028
        0.229794011017975        0.000001712648962       -0.000006827873138       -0.000681829448826
        0.232212895344480        0.000001880256065       -0.000007495865271       -0.000740608795045
        0.234631779670985        0.000002049519579       -0.000008170854156       -0.000798844229917
        0.237050663997490        0.000002219807105       -0.000008849528576       -0.000856219540994
        0.239469548323995        0.000002390145730       -0.000009528808325       -0.000912477813722
        0.241888432650500        0.000002560064475       -0.000010206009175       -0.000967385952913
        0.244307316977005        0.000002728272215       -0.000010876798860       -0.001020589819977
        0.246726201303510        0.000002894477054       -0.000011539190542       -0.001071943122595
        0.249145085630015        0.000003057074450       -0.000012187619017       -0.001121000439700
        0.251563969956520        0.000003215967160       -0.000012820856886       -0.001167704705487
        0.253982854283025        0.000003369248634       -0.000013432151489       -0.001211526952070
        0.256401738609530        0.000003517029421       -0.000014021087249       -0.001252500464939
        0.258820622936035        0.000003657119069       -0.000014579796223       -0.001290022135454
        0.261239507262540        0.000003789846338       -0.000015108716187       -0.001324215408630
        0.263658391589045        0.000003912761615       -0.000015598962547       -0.001354413955762
        0.266077275915550        0.000004026419307       -0.000016051856072       -0.001380829874853
        0.268496160242055        0.000004128141822       -0.000016457619825       -0.001402745866985
        0.270915044568560        0.000004218713451       -0.000016818474453       -0.001420459883083
        0.273333928895065        0.000004295265900       -0.000017123899303       -0.001433217020925
        0.275752813221570        0.000004358814212       -0.000017377018358       -0.001441397031139
        0.278171697548075        0.000004406342291       -0.000017566738265       -0.001444221656920
        0.280590581874580        0.000004439093312       -0.000017697075902       -0.001442147201121
        0.283009466201085        0.000004453951268       -0.000017756556166       -0.001434386928527
        0.285428350527590        0.000004452381301       -0.000017750064239       -0.001421467328999
        0.287847234854095        0.000004431219635       -0.000017665951154       -0.001402608423427
        0.290266119180600        0.000004392143655       -0.000017509931633       -0.001378399498752
        0.292685003507105        0.000004331997342       -0.000017270404218       -0.001348082645659
        0.295103887833610        0.000004252657092       -0.000016953860436       -0.001312301641623
        0.297522772160115        0.000004151032578       -0.000016548977308       -0.001270335755785
        0.299941656486620        0.000004029182588       -0.000016062956904       -0.001222874154525
        0.302360540813125        0.000003884141757       -0.000015484991040       -0.001169247904872
        0.304779425139630        0.000003718131420       -0.000014822913219       -0.001110181798573
        0.307198309466135        0.000003528370655       -0.000014066667187       -0.001045072551771
        0.309617193792640        0.000003317220500       -0.000013224626803       -0.000974670298908
        0.312036078119145        0.000003082142971       -0.000012287720958       -0.000898450219639
        0.314454962445650        0.000002825613246       -0.000011264761944       -0.000817177139559
        0.316873846772155        0.000002545392570       -0.000010147888226       -0.000730416226180
        0.319292731098660        0.000002244042303       -0.000008946239073       -0.000638936131300
        0.321711615425165        0.000001919675790       -0.000007653373285       -0.000542402011565
        0.324130499751670        0.000001574910600       -0.000006278637605       -0.000441575424990
        0.326549384078175        0.000001208260405       -0.000004817203455       -0.000336229787283
        0.328968268404680        0.000000822367412       -0.000003278499163       -0.000227108746517
        0.331387152731185        0.000000416188058       -0.000001659477945       -0.000114100336632
        0.333806037057690       -0.000000007643544        0.000000030480773        0.000002080259541
        0.336224921384195       -0.000000449692648        0.000001792500283        0.000121426088303
        0.338643805710700       -0.000000907366636        0.000003617383246        0.000243260573689
        0.341062690037205       -0.000001380724802        0.000005504219225        0.000367455709571
        0.343481574363710       -0.000001867249609        0.000007444126873        0.000493383108436
        0.345900458690215       -0.000002366475515        0.000009434086772        0.000620793820947
        0.348319343016720       -0.000002875993317        0.000011465666160        0.000749116531860
        0.350738227343225       -0.000003394803284        0.000013533699346        0.000877983732733
        0.353157111669730       -0.000003920636963        0.000015630331376        0.001006889239568
        0.355575995996235       -0.000004451961187        0.000017748253294        0.001135351635563
        0.357994880322740       -0.000004986679314        0.000019880311788        0.001262936987551
        0.360413764649245       -0.000005522736014        0.000022017099563        0.001389056837879
        0.362832648975750       -0.000006058235670        0.000024152281405        0.001513355584047
        0.365251533302255       -0.000006590622797        0.000026274439410        0.001635146720595
        0.367670417628760       -0.000007118229688        0.000028378163639        0.001754157931030
        0.370089301955265       -0.000007638033466        0.000030450156165        0.001869615649174
        0.372508186281770       -0.000008148618446        0.000032486028432        0.001981334607500
        0.374927070608275       -0.000008646537677        0.000034470775159        0.002088466990266
        0.377345954934780       -0.000009130648419        0.000036401112573        0.002190917099359
        0.379764839261285       -0.000009597133112        0.000038260541161        0.002287777298822
        0.382183723587790       -0.000010045139327        0.000040046951140        0.002379042706199
        0.384602607914295       -0.000010470541885        0.000041742599860        0.002463761674257
        0.387021492240800       -0.000010872792152        0.000043346605268        0.002542020095379
        0.389440376567305       -0.000011247529012        0.000044840267322        0.002612839232137
        0.391859260893810       -0.000011594516968        0.000046223968921        0.002676394429940
        0.394278145220315       -0.000011909238302        0.000047478368899        0.002731697602513
        0.396697029546820       -0.000012191775638        0.000048605134984        0.002779010970273
        0.399115913873325       -0.000012437540432        0.000049584626813        0.002817355348372
        0.401534798199830       -0.000012646933923        0.000050419798913        0.002847076041053
        0.403953682526335       -0.000012815387549        0.000051091073760        0.002867221198646
        0.406372566852840       -0.000012943617088        0.000051602676429        0.002878214265408
        0.408791451179345       -0.000013027168271        0.000051935468230        0.002879149010187
        0.411210335505850       -0.000013067062757        0.000052094910294        0.002870520997854
        0.413629219832355       -0.000013059056714        0.000052062686072        0.002851487412339
        0.416048104158860       -0.000013004464507        0.000051845440256        0.002822608936379
        0.418466988485365       -0.000012899348948        0.000051426062015        0.002783123145953
        0.420885872811870       -0.000012745299548        0.000050812309629        0.002733647961574
        0.423304757138375       -0.000012538780209        0.000049988654543        0.002673517185493
        0.425723641464880       -0.000012281633833        0.000048963881942        0.002603397336629
        0.428142525791385       -0.000011970816232        0.000047724407651        0.002522732827447
        0.430561410117890       -0.000011608398021        0.000046279941426        0.002432229504881
        0.432980294444395       -0.000011191912250        0.000044619183699        0.002331455039190
        0.435399178770900       -0.000010723627963        0.000042752652078        0.002221144840389
        0.437818063097405       -0.000010201733469        0.000040671642688        0.002101000488568
        0.440236947423910       -0.000009628663729        0.000038387351408        0.001971776839933
        0.442655831750415       -0.000009003331273        0.000035893945012        0.001833317813736
        0.445074716076920       -0.000008328301672        0.000033203156913        0.001686387390035
        0.447493600403425       -0.000007603269943        0.000030312256850        0.001530977843288
        0.449912484729930       -0.000006830894637        0.000027233365763        0.001367851897833
        0.452331369056435       -0.000006011699335        0.000023967040063        0.001197153636071
        0.454750253382940       -0.000005148396134        0.000020525630995        0.001019634237494
        0.457169137709445       -0.000004242369754        0.000016913111513        0.000835590375735
        0.459588022035950       -0.000003296345130        0.000013141900874        0.000645751631728
        0.462006906362455       -0.000002312586096        0.000009219460226        0.000450565324459
        0.464425790688960       -0.000001293789018        0.000005158111727        0.000250729758108
        0.466844675015465       -0.000000243099350        0.000000968814704        0.000046838210438
        0.469263559341970        0.000000836856650       -0.000003336371419       -0.000160451460603
        0.471682443668475        0.000001942065468       -0.000007743043212       -0.000370407408168
