#             time (fs)      |   total net charge (e)  |   charge (atom_1) (e)   |   charge (atom_2) (e)   |        ...        |   charge (atom_N) (e)   |
          0.000000000000000       -0.000000000000000       -0.000000000000000        0.000000000000000
          0.120944216325250       -0.000000000055113       -0.000417101445261        0.000417101390148
          0.241888432650500       -0.000000000168571        0.001329533175857       -0.001329533344428
          0.362832648975750       -0.000000000335071       -0.002097130366228        0.002097130031157
          0.483776865301000       -0.000000000550100        0.002005513435418       -0.002005513985519
          0.604721081626250       -0.000000000826666       -0.000720746399453        0.000720745572787
          0.725665297951500       -0.000000001163783       -0.001617144124326        0.001617142960543
          0.846609514276750       -0.000000001525409        0.004296702312637       -0.004296703838046
          0.967553730602000       -0.000000001862201       -0.006353527526985        0.006353525664784
          1.088497946927250       -0.000000002143851        0.006809856134186       -0.006809858278037
          1.209442163252500       -0.000000002391551       -0.005131403289393        0.005131400897842
          1.330386379577750       -0.000000002621564        0.001375588428349       -0.001375591049914
          1.451330595903000       -0.000000002805500        0.003650248804258       -0.003650251609757
          1.572274812228250       -0.000000002890588       -0.008640192114881        0.008640189224293
          1.693219028553500       -0.000000002871248        0.012019762143917       -0.012019765015165
          1.814163244878750       -0.000000002798363       -0.012467821611976        0.012467818813612
          1.935107461204000       -0.000000002691719        0.009242422552961       -0.009242425244680
          2.056051677529250       -0.000000002487666       -0.002598367767360        0.002598365279694
          2.176995893854500       -0.000000002124098       -0.006195133126266        0.006195131002168
          2.297940110179750       -0.000000001681985        0.014914750102340       -0.014914751784324
          2.418884326505000       -0.000000001393047       -0.020942170795010        0.020942169401963
          2.539828542830250       -0.000000001314509        0.021855282798632       -0.021855284113142
          2.660772759155500       -0.000000001297727       -0.016314355821251        0.016314354523523
          2.781716975480750       -0.000000000998738        0.004605774299540       -0.004605775298278
          2.902661191806000       -0.000000000441363        0.010960378233043       -0.010960378674405
          3.023605408131250       -0.000000000081570       -0.026412847693173        0.026412847611603
          3.144549624456500       -0.000000000225997        0.036852472810664       -0.036852473036661
          3.265493840781750       -0.000000000947178       -0.037899779498447        0.037899778551269
          3.386438057107000       -0.000000001451012        0.027105537173779       -0.027105538624791
          3.507382273432250       -0.000000001506234       -0.005361322969335        0.005361321463101
          3.628326489757500       -0.000000001230143       -0.022657135076616        0.022657133846473
          3.749270706082750       -0.000000001045170        0.048935877183961       -0.048935878229131
          3.870214922408000       -0.000000001554627       -0.064103282576618        0.064103281021991
          3.991159138733250       -0.000000002311432        0.060202262104714       -0.060202264416146
          4.112103355058500       -0.000000003700879       -0.034033980618480        0.034033976917601
          4.233047571383750       -0.000000005005371       -0.010523042428851        0.010523037423480
          4.353991787709000       -0.000000005166606        0.061893774854344       -0.061893780020949
          4.474936004034250       -0.000000003706950       -0.103187181947560        0.103187178240610
          4.595880220359500       -0.000000001234494        0.117010715489748       -0.117010716724242
          4.716824436684750       -0.000000001551419       -0.092013099453989        0.092013097902570
          4.837768653010000       -0.000000005051297        0.028470074760060       -0.028470079811357
          4.958712869335250       -0.000000008463861        0.059090104985632       -0.059090113449494
          5.079657085660500       -0.000000007346035       -0.144457270685776        0.144457263339741
          5.200601301985750       -0.000000002041784        0.197079575913487       -0.197079577955271
          5.321545518311000        0.000000000997119       -0.192629255694606        0.192629256691725
          5.442489734636251       -0.000000000452914        0.122703818651605       -0.122703819104519
          5.563433950961501       -0.000000002317846       -0.000189339316020        0.000189336998174
          5.684378167286750       -0.000000000180444       -0.142672293346479        0.142672293166035
          5.805322383612000        0.000000001937004        0.262981065187058       -0.262981063250054
          5.926266599937250       -0.000000002128719       -0.320423303808131        0.320423301679412
          6.047210816262500       -0.000000009510467        0.290348516029059       -0.290348525539526
          6.168155032587750       -0.000000007602758       -0.172566635019507        0.172566627416749
          6.289099248913001        0.000000007658366       -0.007538358176931        0.007538365835297
          6.410043465238251        0.000000023301285        0.205353592575809       -0.205353569274525
          6.530987681563500        0.000000021581164       -0.368950486667180        0.368950508248344
          6.651931897888750        0.000000001660826        0.452757521847092       -0.452757520186266
          6.772876114214000       -0.000000014211037       -0.429803445144048        0.429803430933011
          6.893820330539250       -0.000000012135741        0.298979784534285       -0.298979796670026
          7.014764546864500        0.000000000583091       -0.085983937533875        0.085983938116966
          7.135708763189751        0.000000003312217       -0.162166140192769        0.162166143504986
          7.256652979515001       -0.000000008307409        0.386954628590895       -0.386954636898303
          7.377597195840250       -0.000000011400436       -0.531064237416833        0.531064226016396
          7.498541412165500        0.000000018070979        0.551724117347983       -0.551724099277004
          7.619485628490750        0.000000054505580       -0.432916392434466        0.432916446940046
          7.740429844816000        0.000000038410332        0.193067010584943       -0.193066972174611
          7.861374061141250       -0.000000052126208        0.113881167287961       -0.113881219414169
          7.982318277466501       -0.000000133087279       -0.405998336282253        0.405998203194975
          8.103262493791750       -0.000000074670632        0.589955764547819       -0.589955839218451
          8.224206710117000        0.000000103689802       -0.587948543918616        0.587948647608417
          8.345150926442249        0.000000167378293        0.371078569329644       -0.371078401951351
          8.466095142767500       -0.000000085698386        0.012029717823427       -0.012029803521812
          8.587039359092751       -0.000000365656413       -0.428387033551472        0.428386667895059
          8.707983575418000       -0.000000123072129        0.688230400216202       -0.688230523288331
          8.828927791743251        0.000000409994618       -0.620710394977428        0.620710804972046
          8.949872008068500        0.000000084332323        0.190540127152424       -0.190540042820101
          9.070816224393750       -0.000000909957298        0.413988396407710       -0.413989306365008
          9.191760440718999       -0.000000307940591       -0.811359796793665        0.811359488853074
          9.312704657044250        0.000001224095039        0.639531675263711       -0.639530451168673
          9.433648873369501       -0.000000408509809        0.069969354103898       -0.069969762613706
          9.554593089694750       -0.000001412453819       -0.756226290623149        0.756224878169330
          9.675537306020001        0.000001703095841        0.723163730532413       -0.723162027436572
          9.796481522345250        0.000000326235079        0.058575018794444       -0.058574692559366
          9.917425738670500       -0.000000811268058       -0.727359402572968        0.727358591304909
         10.038369954995749        0.000001316304847        0.457726589304240       -0.457725272999393
         10.159314171321000       -0.000000864849123        0.411958191610926       -0.411959056460049
         10.280258387646251        0.000000792901070       -0.663819174670057        0.663819967571128
         10.401202603971500       -0.000001054212135       -0.140542966385758        0.140541912173623
         10.522146820296751        0.000000135200952        0.765562053151215       -0.765561917950263
         10.643091036622000        0.000000728123869       -0.101277641688134        0.101278369812003
         10.764035252947250       -0.000000766748760       -0.712858037840216        0.712857271091456
         10.884979469272501        0.000001063904245        0.184728373052295       -0.184727309148050
         11.005923685597750       -0.000000425923742        0.655691607126477       -0.655692033050220
         11.126867901923001       -0.000000046825928       -0.127785506068346        0.127785459242418
         11.247812118248250       -0.000000361971388       -0.708585251507951        0.708584889536563
         11.368756334573501        0.000000448163282        0.039172920726676       -0.039172472563395
         11.489700550898750        0.000000095632564        0.683970727523767       -0.683970631891203
         11.610644767224001       -0.000000157399413        0.149084136480215       -0.149084293879628
         11.731588983549251        0.000000795363279       -0.585203384054331        0.585204179417609
         11.852533199874500       -0.000001679377471       -0.417152114668415        0.417150435290944
         11.973477416199751        0.000001713930312        0.424541194281335       -0.424539480351023
         12.094421632525000       -0.000000918690205        0.592437113235810       -0.592438031926016
         12.215365848850251        0.000000378613309       -0.079663802684765        0.079664181298074
         12.336310065175500        0.000000461283629       -0.618759864698572        0.618760325982201
         12.457254281500751       -0.000001417365936       -0.330382444503237        0.330381027137301
         12.578198497826001        0.000001549853680        0.416270949638998       -0.416269399785318
         12.699142714151250       -0.000000553293915        0.582871368815575       -0.582871922109490
         12.820086930476501       -0.000000250686819        0.047527414100693       -0.047527664787512
         12.941031146801750        0.000000880943864       -0.545811429281853        0.545812310225717
         13.061975363127001       -0.000001201320950       -0.491347733289102        0.491346531968152
         13.182919579452250        0.000000828154056        0.147018879917399       -0.147018051763343
         13.303863795777501        0.000000285818300        0.576047240960161       -0.576046955141860
         13.424808012102751       -0.000000983469289        0.395598943347491       -0.395599926816781
         13.545752228428000        0.000000685110613       -0.221043614994433        0.221044300105046
         13.666696444753251        0.000000099889353       -0.598770891919784        0.598770991809137
         13.787640661078500       -0.000000400575685       -0.331237242589639        0.331236842013954
         13.908584877403751        0.000000181228777        0.222560799880673       -0.222560618651896
         14.029529093729000        0.000000243240456        0.599546904082422       -0.599546660841966
         14.150473310054251       -0.000000396570502        0.336983395317016       -0.336983791887518
         14.271417526379501        0.000000311704107       -0.199084621591212        0.199084933295319
         14.392361742704750        0.000000299354103       -0.564249996558636        0.564250295912739
         14.513305959030001       -0.000000722571393       -0.404613777777437        0.404613055206043
         14.634250175355250        0.000000488600397        0.127978005722572       -0.127977517122175
         14.755194391680501        0.000000257833310        0.518043871337057       -0.518043613503747
         14.876138608005750       -0.000000478405792        0.481833763346443       -0.481834241752236
         14.997082824331001        0.000000040647136        0.014526788916769       -0.014526748269633
         15.118027040656251        0.000000441796878       -0.451438355783986        0.451438797580864
         15.238971256981500       -0.000000132620969       -0.532065270946667        0.532065138325699
         15.359915473306751       -0.000000380566002       -0.191778565152768        0.191778184586766
         15.480859689632000        0.000000500028543        0.313055668631907       -0.313055168603364
         15.601803905957251        0.000000018226112        0.551831114868640       -0.551831096642529
         15.722748122282500       -0.000000251473144        0.352865961014903       -0.352866212488047
         15.843692338607751        0.000000067894944       -0.109176183497153        0.109176251392097
         15.964636554933001        0.000000253853680       -0.505892205674071        0.505892459527751
         16.085580771258250       -0.000000098082506       -0.471667221870267        0.471667123787761
         16.206524987583499       -0.000000143157169       -0.107494683912208        0.107494540755039
         16.327469203908752        0.000000264563838        0.354023511846095       -0.354023247282257
         16.448413420234001       -0.000000020673466        0.539064730054913       -0.539064750728379
         16.569357636559250       -0.000000061283632        0.295079151063953       -0.295079212347585
         16.690301852884499        0.000000024040116       -0.138501464569804        0.138501488609920
         16.811246069209751        0.000000111851163       -0.506332328176025        0.506332440027188
         16.932190285535000       -0.000000019203847       -0.442256411979773        0.442256392775926
         17.053134501860249       -0.000000005790323       -0.077910184849413        0.077910179059090
         17.174078718185502        0.000000059805724        0.354744801619812       -0.354744741814088
         17.295022934510751        0.000000017609871        0.530322687343997       -0.530322669734126
         17.415967150836000        0.000000026869523        0.266054626003905       -0.266054599134382
         17.536911367161249        0.000000020371330       -0.151968025538950        0.151968045910280
         17.657855583486501       -0.000000025303336       -0.504084971601687        0.504084946298351
         17.778799799811750        0.000000084131815       -0.425617461973037        0.425617546104852
         17.899744016136999        0.000000035031410       -0.043851617247176        0.043851652278586
         18.020688232462252       -0.000000069277844        0.369301571782239       -0.369301641060083
         18.141632448787501        0.000000096328768        0.527817085269795       -0.527816988941027
         18.262576665112750        0.000000051693345        0.224361899499293       -0.224361847805948
         18.383520881437999       -0.000000015179145       -0.201699273824701        0.201699258645557
         18.504465097763251       -0.000000116553895       -0.520991798283186        0.520991681729291
         18.625409314088500        0.000000268189999       -0.393440675137215        0.393440943327215
         18.746353530413749       -0.000000081981114        0.039676451033616       -0.039676533014730
         18.867297746739002       -0.000000150979068        0.429959829872466       -0.429959980851534
         18.988241963064251        0.000000299036735        0.513971168486994       -0.513970869450258
         19.109186179389500        0.000000004024433        0.128020089105832       -0.128020085081399
         19.230130395714749       -0.000000202031482       -0.323267882008420        0.323267679976938
         19.351074612040001       -0.000000007496046       -0.545320889996045        0.545320882499998
         19.472018828365250        0.000000514993813       -0.293728572903103        0.293729087896916
         19.592963044690499       -0.000000460187460        0.213444417725304       -0.213444877912765
         19.713907261015752       -0.000000117773366        0.525749590809217       -0.525749708582583
         19.834851477341001        0.000000650011098        0.413123462128229       -0.413122812117131
         19.955795693666250       -0.000000274064078       -0.091040109514190        0.091039835450113
         20.076739909991499       -0.000000336382056       -0.512058498079390        0.512058161697334
         20.197684126316751        0.000000378764680       -0.461754041602354        0.461754420367035
         20.318628342642000        0.000000348203980       -0.006792031503385        0.006792379707365
         20.439572558967249       -0.000000781750843        0.500153484328050       -0.500154266078894
         20.560516775292502        0.000000439028432        0.487291675543987       -0.487291236515555
         20.681460991617751        0.000000221342714        0.027053026766121       -0.027052805423406
         20.802405207943000       -0.000000687762113       -0.485679700169071        0.485679012406958
         20.923349424268253        0.000000940099199       -0.513204845038852        0.513205785138050
         21.044293640593501       -0.000000464294749        0.029703741885275       -0.029704206180024
         21.165237856918750       -0.000000395315272        0.507268687587354       -0.507269082902626
         21.286182073243999        0.000001047342050        0.481111327412364       -0.481110280070315
         21.407126289569252       -0.000000547873610       -0.124350908513462        0.124350360639852
         21.528070505894501       -0.000000287880989       -0.587831305798737        0.587831017917748
         21.649014722219750        0.000000561314000       -0.346015797964961        0.346016359278961
         21.769958938545003       -0.000000305830985        0.282486178396347       -0.282486484227333
         21.890903154870252        0.000000376577703        0.631695922560409       -0.631695545982706
         22.011847371195501       -0.000000051435779        0.116313737707589       -0.116313789143368
         22.132791587520749       -0.000000718618115       -0.515631358705349        0.515630640087234
         22.253735803846002        0.000000921407225       -0.474343365872181        0.474344287279405
         22.374680020171251       -0.000000336692266        0.225615442746990       -0.225615779439256
         22.495624236496500        0.000000465896302        0.662283262814907       -0.662282796918605
         22.616568452821753       -0.000000442288619        0.063216154581948       -0.063216596870567
         22.737512669147002       -0.000000495317740       -0.582209638091960        0.582209142774220
         22.858456885472251        0.000001266690112       -0.348447717616698        0.348448984306810
         22.979401101797500       -0.000001307736743        0.488971739840319       -0.488973047577062
         23.100345318122752        0.000001978094935        0.529419581883174       -0.529417603788239
