#     time (fs)  |  E_x (eV/ang)  | E_y (eV/ang) | E_z (eV/ang)
     0.00000000     0.00000000     0.00000000     0.00000000
     0.00241888     0.01067969     0.00000000     0.01067969
     0.00483777     0.02134337     0.00000000     0.02134337
     0.00725665     0.03197507     0.00000000     0.03197507
     0.00967554     0.04255884     0.00000000     0.04255884
     0.01209442     0.05307883     0.00000000     0.05307883
     0.01451331     0.06351927     0.00000000     0.06351927
     0.01693219     0.07386452     0.00000000     0.07386452
     0.01935107     0.08409906     0.00000000     0.08409906
     0.02176996     0.09420756     0.00000000     0.09420756
     0.02418884     0.10417488     0.00000000     0.10417488
     0.02660773     0.11398606     0.00000000     0.11398606
     0.02902661     0.12362642     0.00000000     0.12362642
     0.03144550     0.13308149     0.00000000     0.13308149
     0.03386438     0.14233711     0.00000000     0.14233711
     0.03628326     0.15137942     0.00000000     0.15137942
     0.03870215     0.16019485     0.00000000     0.16019485
     0.04112103     0.16877019     0.00000000     0.16877019
     0.04353992     0.17709260     0.00000000     0.17709260
     0.04595880     0.18514960     0.00000000     0.18514960
     0.04837769     0.19292911     0.00000000     0.19292911
     0.05079657     0.20041948     0.00000000     0.20041948
     0.05321546     0.20760948     0.00000000     0.20760948
     0.05563434     0.21448833     0.00000000     0.21448833
     0.05805322     0.22104573     0.00000000     0.22104573
     0.06047211     0.22727184     0.00000000     0.22727184
     0.06289099     0.23315734     0.00000000     0.23315734
     0.06530988     0.23869341     0.00000000     0.23869341
     0.06772876     0.24387174     0.00000000     0.24387174
     0.07014765     0.24868459     0.00000000     0.24868459
     0.07256653     0.25312472     0.00000000     0.25312472
     0.07498541     0.25718550     0.00000000     0.25718550
     0.07740430     0.26086083     0.00000000     0.26086083
     0.07982318     0.26414521     0.00000000     0.26414521
     0.08224207     0.26703372     0.00000000     0.26703372
     0.08466095     0.26952201     0.00000000     0.26952201
     0.08707984     0.27160638     0.00000000     0.27160638
     0.08949872     0.27328368     0.00000000     0.27328368
     0.09191760     0.27455141     0.00000000     0.27455141
     0.09433649     0.27540767     0.00000000     0.27540767
     0.09675537     0.27585118     0.00000000     0.27585118
     0.09917426     0.27588126     0.00000000     0.27588126
     0.10159314     0.27549788     0.00000000     0.27549788
     0.10401203     0.27470161     0.00000000     0.27470161
     0.10643091     0.27349364     0.00000000     0.27349364
     0.10884979     0.27187579     0.00000000     0.27187579
     0.11126868     0.26985047     0.00000000     0.26985047
     0.11368756     0.26742073     0.00000000     0.26742073
     0.11610645     0.26459020     0.00000000     0.26459020
     0.11852533     0.26136313     0.00000000     0.26136313
     0.12094422     0.25774435     0.00000000     0.25774435
     0.12336310     0.25373928     0.00000000     0.25373928
     0.12578198     0.24935394     0.00000000     0.24935394
     0.12820087     0.24459489     0.00000000     0.24459489
     0.13061975     0.23946926     0.00000000     0.23946926
     0.13303864     0.23398474     0.00000000     0.23398474
     0.13545752     0.22814955     0.00000000     0.22814955
     0.13787641     0.22197242     0.00000000     0.22197242
     0.14029529     0.21546263     0.00000000     0.21546263
     0.14271418     0.20862991     0.00000000     0.20862991
     0.14513306     0.20148453     0.00000000     0.20148453
     0.14755194     0.19403717     0.00000000     0.19403717
     0.14997083     0.18629902     0.00000000     0.18629902
     0.15238971     0.17828165     0.00000000     0.17828165
     0.15480860     0.16999709     0.00000000     0.16999709
     0.15722748     0.16145776     0.00000000     0.16145776
     0.15964637     0.15267645     0.00000000     0.15267645
     0.16206525     0.14366632     0.00000000     0.14366632
     0.16448413     0.13444088     0.00000000     0.13444088
     0.16690302     0.12501395     0.00000000     0.12501395
     0.16932190     0.11539966     0.00000000     0.11539966
     0.17174079     0.10561242     0.00000000     0.10561242
     0.17415967     0.09566690     0.00000000     0.09566690
     0.17657856     0.08557800     0.00000000     0.08557800
     0.17899744     0.07536085     0.00000000     0.07536085
     0.18141632     0.06503075     0.00000000     0.06503075
     0.18383521     0.05460319     0.00000000     0.05460319
     0.18625409     0.04409380     0.00000000     0.04409380
     0.18867298     0.03351832     0.00000000     0.03351832
     0.19109186     0.02289261     0.00000000     0.02289261
     0.19351075     0.01223259     0.00000000     0.01223259
     0.19592963     0.00155423     0.00000000     0.00155423
     0.19834851    -0.00912645    -0.00000000    -0.00912645
     0.20076740    -0.01979346    -0.00000000    -0.01979346
     0.20318628    -0.03043080    -0.00000000    -0.03043080
     0.20560517    -0.04102253    -0.00000000    -0.04102253
     0.20802405    -0.05155279    -0.00000000    -0.05155279
     0.21044294    -0.06200578    -0.00000000    -0.06200578
     0.21286182    -0.07236584    -0.00000000    -0.07236584
     0.21528071    -0.08261745    -0.00000000    -0.08261745
     0.21769959    -0.09274523    -0.00000000    -0.09274523
     0.22011847    -0.10273402    -0.00000000    -0.10273402
     0.22253736    -0.11256885    -0.00000000    -0.11256885
     0.22495624    -0.12223496    -0.00000000    -0.12223496
     0.22737513    -0.13171788    -0.00000000    -0.13171788
     0.22979401    -0.14100339    -0.00000000    -0.14100339
     0.23221290    -0.15007758    -0.00000000    -0.15007758
     0.23463178    -0.15892685    -0.00000000    -0.15892685
     0.23705066    -0.16753794    -0.00000000    -0.16753794
     0.23946955    -0.17589793    -0.00000000    -0.17589793
     0.24188843    -0.18399430    -0.00000000    -0.18399430
     0.24430732    -0.19181492    -0.00000000    -0.19181492
     0.24672620    -0.19934807    -0.00000000    -0.19934807
     0.24914509    -0.20658245    -0.00000000    -0.20658245
     0.25156397    -0.21350723    -0.00000000    -0.21350723
     0.25398285    -0.22011202    -0.00000000    -0.22011202
     0.25640174    -0.22638692    -0.00000000    -0.22638692
     0.25882062    -0.23232254    -0.00000000    -0.23232254
     0.26123951    -0.23790998    -0.00000000    -0.23790998
     0.26365839    -0.24314086    -0.00000000    -0.24314086
     0.26607728    -0.24800734    -0.00000000    -0.24800734
     0.26849616    -0.25250213    -0.00000000    -0.25250213
     0.27091504    -0.25661850    -0.00000000    -0.25661850
     0.27333393    -0.26035027    -0.00000000    -0.26035027
     0.27575281    -0.26369185    -0.00000000    -0.26369185
     0.27817170    -0.26663823    -0.00000000    -0.26663823
     0.28059058    -0.26918500    -0.00000000    -0.26918500
     0.28300947    -0.27132835    -0.00000000    -0.27132835
     0.28542835    -0.27306505    -0.00000000    -0.27306505
     0.28784723    -0.27439250    -0.00000000    -0.27439250
     0.29026612    -0.27530872    -0.00000000    -0.27530872
     0.29268500    -0.27581234    -0.00000000    -0.27581234
     0.29510389    -0.27590259     0.00000000    -0.27590259
     0.29752277    -0.27557935     0.00000000    -0.27557935
     0.29994166    -0.27484309     0.00000000    -0.27484309
     0.30236054    -0.27369493     0.00000000    -0.27369493
     0.30477943    -0.27213657     0.00000000    -0.27213657
     0.30719831    -0.27017036     0.00000000    -0.27017036
     0.30961719    -0.26779925     0.00000000    -0.26779925
     0.31203608    -0.26502679     0.00000000    -0.26502679
     0.31445496    -0.26185712     0.00000000    -0.26185712
     0.31687385    -0.25829501     0.00000000    -0.25829501
     0.31929273    -0.25434579     0.00000000    -0.25434579
     0.32171162    -0.25001539     0.00000000    -0.25001539
     0.32413050    -0.24531028     0.00000000    -0.24531028
     0.32654938    -0.24023752     0.00000000    -0.24023752
     0.32896827    -0.23480472     0.00000000    -0.23480472
     0.33138715    -0.22902001     0.00000000    -0.22902001
     0.33380604    -0.22289207     0.00000000    -0.22289207
     0.33622492    -0.21643009     0.00000000    -0.21643009
     0.33864381    -0.20964373     0.00000000    -0.20964373
     0.34106269    -0.20254318     0.00000000    -0.20254318
     0.34348157    -0.19513908     0.00000000    -0.19513908
     0.34590046    -0.18744252     0.00000000    -0.18744252
     0.34831934    -0.17946504     0.00000000    -0.17946504
     0.35073823    -0.17121860     0.00000000    -0.17121860
     0.35315711    -0.16271555     0.00000000    -0.16271555
     0.35557600    -0.15396863     0.00000000    -0.15396863
     0.35799488    -0.14499097     0.00000000    -0.14499097
     0.36041376    -0.13579600     0.00000000    -0.13579600
     0.36283265    -0.12639751     0.00000000    -0.12639751
     0.36525153    -0.11680960     0.00000000    -0.11680960
     0.36767042    -0.10704662     0.00000000    -0.10704662
     0.37008930    -0.09712320     0.00000000    -0.09712320
     0.37250819    -0.08705423     0.00000000    -0.08705423
     0.37492707    -0.07685479     0.00000000    -0.07685479
     0.37734595    -0.06654017     0.00000000    -0.06654017
     0.37976484    -0.05612582     0.00000000    -0.05612582
     0.38218372    -0.04562735     0.00000000    -0.04562735
     0.38460261    -0.03506051     0.00000000    -0.03506051
     0.38702149    -0.02444112     0.00000000    -0.02444112
     0.38944038    -0.01378510     0.00000000    -0.01378510
     0.39185926    -0.00310842     0.00000000    -0.00310842
     0.39427815     0.00757292     0.00000000     0.00757292
     0.39669703     0.01824291     0.00000000     0.01824291
     0.39911591     0.02888556     0.00000000     0.02888556
     0.40153480     0.03948492     0.00000000     0.03948492
     0.40395368     0.05002510     0.00000000     0.05002510
     0.40637257     0.06049031     0.00000000     0.06049031
     0.40879145     0.07086487     0.00000000     0.07086487
     0.41121034     0.08113321     0.00000000     0.08113321
     0.41362922     0.09127996     0.00000000     0.09127996
     0.41604810     0.10128991     0.00000000     0.10128991
     0.41846699     0.11114806     0.00000000     0.11114806
     0.42088587     0.12083963     0.00000000     0.12083963
     0.42330476     0.13035009     0.00000000     0.13035009
     0.42572364     0.13966520     0.00000000     0.13966520
     0.42814253     0.14877099     0.00000000     0.14877099
     0.43056141     0.15765381     0.00000000     0.15765381
     0.43298029     0.16630036     0.00000000     0.16630036
     0.43539918     0.17469768     0.00000000     0.17469768
     0.43781806     0.18283317     0.00000000     0.18283317
     0.44023695     0.19069465     0.00000000     0.19069465
     0.44265583     0.19827034     0.00000000     0.19827034
     0.44507472     0.20554887     0.00000000     0.20554887
     0.44749360     0.21251935     0.00000000     0.21251935
     0.44991248     0.21917132     0.00000000     0.21917132
     0.45233137     0.22549482     0.00000000     0.22549482
     0.45475025     0.23148037     0.00000000     0.23148037
     0.45716914     0.23711900     0.00000000     0.23711900
     0.45958802     0.24240226     0.00000000     0.24240226
     0.46200691     0.24732223     0.00000000     0.24732223
     0.46442579     0.25187153     0.00000000     0.25187153
     0.46684468     0.25604335     0.00000000     0.25604335
     0.46926356     0.25983144     0.00000000     0.25983144
     0.47168244     0.26323012     0.00000000     0.26323012
     0.47410133     0.26623429     0.00000000     0.26623429
     0.47652021     0.26883945     0.00000000     0.26883945
     0.47893910     0.27104171     0.00000000     0.27104171
     0.48135798     0.27283775     0.00000000     0.27283775
     0.48377687     0.27422489     0.00000000     0.27422489
     0.48619575     0.27520104     0.00000000     0.27520104
     0.48861463     0.27576475     0.00000000     0.27576475
     0.49103352     0.27591517     0.00000000     0.27591517
     0.49345240     0.27565207     0.00000000     0.27565207
     0.49587129     0.27497585     0.00000000     0.27497585
     0.49829017     0.27388753     0.00000000     0.27388753
     0.50070906     0.27238872     0.00000000     0.27238872
     0.50312794     0.27048169     0.00000000     0.27048169
     0.50554682     0.26816928     0.00000000     0.26816928
     0.50796571     0.26545496     0.00000000     0.26545496
     0.51038459     0.26234281     0.00000000     0.26234281
     0.51280348     0.25883748     0.00000000     0.25883748
     0.51522236     0.25494423     0.00000000     0.25494423
     0.51764125     0.25066890     0.00000000     0.25066890
     0.52006013     0.24601788     0.00000000     0.24601788
     0.52247901     0.24099815     0.00000000     0.24099815
     0.52489790     0.23561724     0.00000000     0.23561724
     0.52731678     0.22988321     0.00000000     0.22988321
     0.52973567     0.22380465     0.00000000     0.22380465
     0.53215455     0.21739068     0.00000000     0.21739068
     0.53457344     0.21065090     0.00000000     0.21065090
     0.53699232     0.20359541     0.00000000     0.20359541
     0.53941120     0.19623480     0.00000000     0.19623480
     0.54183009     0.18858008     0.00000000     0.18858008
     0.54424897     0.18064274     0.00000000     0.18064274
     0.54666786     0.17243467     0.00000000     0.17243467
     0.54908674     0.16396817     0.00000000     0.16396817
     0.55150563     0.15525594     0.00000000     0.15525594
     0.55392451     0.14631101     0.00000000     0.14631101
     0.55634340     0.13714681     0.00000000     0.13714681
     0.55876228     0.12777707     0.00000000     0.12777707
     0.56118116     0.11821583     0.00000000     0.11821583
     0.56360005     0.10847741     0.00000000     0.10847741
     0.56601893     0.09857642     0.00000000     0.09857642
     0.56843782     0.08852770     0.00000000     0.08852770
     0.57085670     0.07834629     0.00000000     0.07834629
     0.57327559     0.06804747     0.00000000     0.06804747
     0.57569447     0.05764667     0.00000000     0.05764667
     0.57811335     0.04715947     0.00000000     0.04715947
     0.58053224     0.03660159     0.00000000     0.03660159
     0.58295112     0.02598885     0.00000000     0.02598885
     0.58537001     0.01533717     0.00000000     0.01533717
     0.58778889     0.00466250     0.00000000     0.00466250
     0.59020778    -0.00601916    -0.00000000    -0.00601916
     0.59262666    -0.01669179    -0.00000000    -0.01669179
     0.59504554    -0.02733941    -0.00000000    -0.02733941
     0.59746443    -0.03794606    -0.00000000    -0.03794606
     0.59988331    -0.04849584    -0.00000000    -0.04849584
     0.60230220    -0.05897293    -0.00000000    -0.05897293
     0.60472108    -0.06936164    -0.00000000    -0.06936164
     0.60713997    -0.07964640    -0.00000000    -0.07964640
     0.60955885    -0.08981180    -0.00000000    -0.08981180
     0.61197773    -0.09984259    -0.00000000    -0.09984259
     0.61439662    -0.10972374    -0.00000000    -0.10972374
     0.61681550    -0.11944046    -0.00000000    -0.11944046
     0.61923439    -0.12897816    -0.00000000    -0.12897816
     0.62165327    -0.13832257    -0.00000000    -0.13832257
     0.62407216    -0.14745967    -0.00000000    -0.14745967
     0.62649104    -0.15637577    -0.00000000    -0.15637577
     0.62890992    -0.16505751    -0.00000000    -0.16505751
     0.63132881    -0.17349188    -0.00000000    -0.17349188
     0.63374769    -0.18166624    -0.00000000    -0.18166624
     0.63616658    -0.18956833    -0.00000000    -0.18956833
     0.63858546    -0.19718631    -0.00000000    -0.19718631
     0.64100435    -0.20450877    -0.00000000    -0.20450877
     0.64342323    -0.21152473    -0.00000000    -0.21152473
     0.64584212    -0.21822368    -0.00000000    -0.21822368
     0.64826100    -0.22459557    -0.00000000    -0.22459557
     0.65067988    -0.23063086    -0.00000000    -0.23063086
     0.65309877    -0.23632050    -0.00000000    -0.23632050
     0.65551765    -0.24165597    -0.00000000    -0.24165597
     0.65793654    -0.24662926    -0.00000000    -0.24662926
     0.66035542    -0.25123293    -0.00000000    -0.25123293
     0.66277431    -0.25546008    -0.00000000    -0.25546008
     0.66519319    -0.25930437    -0.00000000    -0.25930437
     0.66761207    -0.26276003    -0.00000000    -0.26276003
     0.67003096    -0.26582190    -0.00000000    -0.26582190
     0.67244984    -0.26848537    -0.00000000    -0.26848537
     0.67486873    -0.27074647    -0.00000000    -0.27074647
     0.67728761    -0.27260179    -0.00000000    -0.27260179
     0.67970650    -0.27404857    -0.00000000    -0.27404857
     0.68212538    -0.27508462    -0.00000000    -0.27508462
     0.68454426    -0.27570841    -0.00000000    -0.27570841
     0.68696315    -0.27591899    -0.00000000    -0.27591899
     0.68938203    -0.27571605     0.00000000    -0.27571605
     0.69180092    -0.27509989     0.00000000    -0.27509989
     0.69421980    -0.27407144     0.00000000    -0.27407144
     0.69663869    -0.27263223     0.00000000    -0.27263223
     0.69905757    -0.27078443     0.00000000    -0.27078443
     0.70147645    -0.26853080     0.00000000    -0.26853080
     0.70389534    -0.26587472     0.00000000    -0.26587472
     0.70631422    -0.26282018     0.00000000    -0.26282018
     0.70873311    -0.25937174     0.00000000    -0.25937174
     0.71115199    -0.25553458     0.00000000    -0.25553458
     0.71357088    -0.25131445     0.00000000    -0.25131445
     0.71598976    -0.24671768     0.00000000    -0.24671768
     0.71840864    -0.24175114     0.00000000    -0.24175114
     0.72082753    -0.23642229     0.00000000    -0.23642229
     0.72324641    -0.23073912     0.00000000    -0.23073912
     0.72566530    -0.22471013     0.00000000    -0.22471013
     0.72808418    -0.21834437     0.00000000    -0.21834437
     0.73050307    -0.21165138     0.00000000    -0.21165138
     0.73292195    -0.20464118     0.00000000    -0.20464118
     0.73534084    -0.19732429     0.00000000    -0.19732429
     0.73775972    -0.18971166     0.00000000    -0.18971166
     0.74017860    -0.18181471     0.00000000    -0.18181471
     0.74259749    -0.17364528     0.00000000    -0.17364528
     0.74501637    -0.16521560     0.00000000    -0.16521560
     0.74743526    -0.15653831     0.00000000    -0.15653831
     0.74985414    -0.14762642     0.00000000    -0.14762642
     0.75227303    -0.13849327     0.00000000    -0.13849327
     0.75469191    -0.12915257     0.00000000    -0.12915257
     0.75711079    -0.11961831     0.00000000    -0.11961831
     0.75952968    -0.10990477     0.00000000    -0.10990477
     0.76194856    -0.10002652     0.00000000    -0.10002652
     0.76436745    -0.08999835     0.00000000    -0.08999835
     0.76678633    -0.07983531     0.00000000    -0.07983531
     0.76920522    -0.06955262     0.00000000    -0.06955262
     0.77162410    -0.05916568     0.00000000    -0.05916568
     0.77404298    -0.04869008     0.00000000    -0.04869008
     0.77646187    -0.03814150     0.00000000    -0.03814150
     0.77888075    -0.02753576     0.00000000    -0.02753576
     0.78129964    -0.01688875     0.00000000    -0.01688875
     0.78371852    -0.00621644     0.00000000    -0.00621644
     0.78613741     0.00446520     0.00000000     0.00446520
