#           time (fs)    |     mu_x (e.angstrom)   |     mu_y (e.angstrom)   |     mu_z (e.angstrom)   |
        0.000000000000000       -0.000000000000000       -0.000000000000000        0.000000000000000
        0.002418884326505        0.000000000830859        0.000000000187118       -0.000016973933282
        0.004837768653010        0.000000003324369        0.000000000748650       -0.000033958371733
        0.007256652979515        0.000000007440594        0.000000001675649       -0.000050667338633
        0.009675537306020        0.000000011572582        0.000000002606151       -0.000059102423309
        0.012094421632525        0.000000016400586        0.000000003693459       -0.000067004016761
        0.014513305959030        0.000000017184953        0.000000003870060       -0.000058505879001
        0.016932190285535        0.000000016882175        0.000000003801929       -0.000049261386168
        0.019351074612040        0.000000006190715        0.000000001394153       -0.000015805942599
        0.021769958938545       -0.000000008167076       -0.000000001839160        0.000018535486274
        0.024188843265050       -0.000000041340728       -0.000000009309952        0.000084433641543
        0.026607727591555       -0.000000081467735       -0.000000018346490        0.000151257605410
        0.029026611918060       -0.000000150644490       -0.000000033925214        0.000256375679760
        0.031445496244565       -0.000000230655537       -0.000000051943644        0.000362335088437
        0.033864380571070       -0.000000351416070       -0.000000079139078        0.000512584983161
        0.036283264897575       -0.000000487348687       -0.000000109751066        0.000663445575761
        0.038702149224080       -0.000000676798179       -0.000000152415312        0.000863732032511
        0.041121033550585       -0.000000886057407       -0.000000199540495        0.001064233648586
        0.043539917877090       -0.000001162222554       -0.000000261733195        0.001318330240654
        0.045958802203595       -0.000001462961672       -0.000000329459734        0.001572066381117
        0.048377686530100       -0.000001844134410       -0.000000415300289        0.001882511646361
        0.050796570856605       -0.000002254586495       -0.000000507734348        0.002191829558979
        0.053215455183110       -0.000002758630364       -0.000000621245727        0.002559845237582
        0.055634339509615       -0.000003296406937       -0.000000742353554        0.002925768420881
        0.058053223836120       -0.000003940043114       -0.000000887301536        0.003351201393103
        0.060472108162625       -0.000004621417149       -0.000001040748018        0.003773376038280
        0.062890992489130       -0.000005419507937       -0.000001220479864        0.004254665160941
        0.065309876815635       -0.000006258699186       -0.000001409467622        0.004731331649969
        0.067728761142140       -0.000007223547126       -0.000001626754269        0.005265500271901
        0.070147645468645       -0.000008232027977       -0.000001853867366        0.005793490427902
        0.072566529795150       -0.000009372708729       -0.000002110753226        0.006376164931051
        0.074985414121655       -0.000010558548700       -0.000002377809586        0.006950925281295
        0.077404298448160       -0.000011880295445       -0.000002675473948        0.007576379552652
        0.079823182774665       -0.000013247561909       -0.000002983390425        0.008192020422370
        0.082242067101170       -0.000014751218205       -0.000003322024257        0.008853245719952
        0.084660951427675       -0.000016299450032       -0.000003670698116        0.009502615534081
        0.087079835754180       -0.000017981006901       -0.000004049399827        0.010191414775163
        0.089498720080685       -0.000019704776430       -0.000004437610100        0.010866198512561
        0.091917604407190       -0.000021555007883       -0.000004854303445        0.011573303591720
        0.094336488733695       -0.000023443584995       -0.000005279635253        0.012264143919664
        0.096755373060200       -0.000025447794359       -0.000005731012165        0.012979354265012
        0.099174257386705       -0.000027484924480       -0.000006189806674        0.013675993487998
        0.101593141713210       -0.000029622811689       -0.000006671297310        0.014388333693129
        0.104012026039715       -0.000031786617279       -0.000007158629461        0.015079774285826
        0.106430910366220       -0.000034032274887       -0.000007664401205        0.015777668318716
        0.108849794692725       -0.000036295287504       -0.000008174086822        0.016452349484511
        0.111268679019230       -0.000038617330519       -0.000008697073392        0.017123808678606
        0.113687563345735       -0.000040946657836       -0.000009221706655        0.017769796088176
        0.116106447672240       -0.000043308489696       -0.000009753667852        0.018402617870170
        0.118525331998745       -0.000045666119031       -0.000010284689488        0.019007803493584
        0.120944216325250       -0.000048026333130       -0.000010816301445        0.019589777601215
        0.123363100651755       -0.000050369570126       -0.000011344097347        0.020142086356440
        0.125781984978260       -0.000052682483356       -0.000011865072513        0.020661205151264
        0.128200869304765       -0.000054964521493       -0.000012379101822        0.021148804954695
        0.130619753631270       -0.000057180833376       -0.000012878337230        0.021593474341898
        0.133038637957775       -0.000059351447093       -0.000013367288266        0.022004986065010
        0.135457522284280       -0.000061419015181       -0.000013833040007        0.022364233496376
        0.137876406610785       -0.000063425366560       -0.000014285011804        0.022688937308252
        0.140295290937290       -0.000065290086115       -0.000014705093027        0.022952613366135
        0.142714175263795       -0.000067077632424       -0.000015107799623        0.023180647974907
        0.145133059590300       -0.000068684405849       -0.000015469798788        0.023339618114223
        0.147551943916805       -0.000070197892747       -0.000015810792863        0.023462169511009
        0.149970828243310       -0.000071491671985       -0.000016102308490        0.023508492671762
        0.152389712569815       -0.000072676195026       -0.000016369220441        0.023517969127182
        0.154808596896320       -0.000073603078147       -0.000016578108130        0.023445060119775
        0.157227481222825       -0.000074405193294       -0.000016758896258        0.023335250383350
        0.159646365549330       -0.000074913554879       -0.000016873523383        0.023138023190151
        0.162065249875835       -0.000075282417218       -0.000016956730492        0.022904235093944
        0.164484134202340       -0.000075324050852       -0.000016966233689        0.022579224519541
        0.166903018528845       -0.000075212559497       -0.000016941245142        0.022218401485327
        0.169321902855350       -0.000074743809858       -0.000016835785511        0.021763860920194
        0.171740787181855       -0.000074109736313       -0.000016693083609        0.021274674209806
        0.174159671508360       -0.000073092597882       -0.000016464094436        0.020690647642688
        0.176578555834865       -0.000071899674787       -0.000016195503911        0.020073562568657
        0.178997440161370       -0.000070302834221       -0.000015835925730        0.019361929385967
        0.181416324487875       -0.000068521781541       -0.000015434845166        0.018619244108312
        0.183835208814380       -0.000066321581212       -0.000014939343072        0.017783735648043
        0.186254093140885       -0.000063931047481       -0.000014400957185        0.016919591616667
        0.188672977467390       -0.000061112348582       -0.000013766115512        0.015965778892922
        0.191091861793895       -0.000058099745860       -0.000013087583475        0.014986142446628
        0.193510746120400       -0.000054656670814       -0.000012312073250        0.013921394921713
        0.195929630446905       -0.000051018883432       -0.000011492688549        0.012834010017198
        0.198348514773410       -0.000046955419106       -0.000010577403553        0.011667425763962
        0.200767399099915       -0.000042699368182       -0.000009618721293        0.010481738273810
        0.203186283426420       -0.000038029813555       -0.000008566879018        0.009224046333934
        0.205605167752925       -0.000033172861477       -0.000007472807129        0.007951100814013
        0.208024052079430       -0.000027922105931       -0.000006290011521        0.006614537010746
        0.210442936405935       -0.000022492287647       -0.000005066862879        0.005266847287048
        0.212861820732440       -0.000016695908883       -0.000003761126378        0.003865005185961
        0.215280705058945       -0.000010731979743       -0.000002417629540        0.002456400541233
        0.217699589385450       -0.000004436153437       -0.000000999352661        0.001004059662773
        0.220118473711955        0.000002012553484        0.000000453380367       -0.000450491192697
        0.222537358038460        0.000008751336832        0.000001971472936       -0.001937557426680
        0.224956242364965        0.000015625247597        0.000003520022715       -0.003422142044947
        0.227375126691470        0.000022740659680        0.000005122989713       -0.004927375808200
        0.229794011017975        0.000029970490667        0.000006751749173       -0.006425350467561
        0.232212895344480        0.000037387033691        0.000008422583466       -0.007931633350991
        0.234631779670985        0.000044894513574        0.000010113920690       -0.009425849120788
        0.237050663997490        0.000052528373691        0.000011833741659       -0.010915736912088
        0.239469548323995        0.000060227149065        0.000013568204008       -0.012388775908668
        0.241888432650500        0.000067987225123        0.000015316489387       -0.013844740769076
        0.244307316977005        0.000075783938999        0.000017073046524       -0.015279159010490
        0.246726201303510        0.000083573033278        0.000018827900684       -0.016683835349877
        0.249145085630015        0.000091368562199        0.000020584223261       -0.018062408491301
        0.251563969956520        0.000099084716493        0.000022322678158       -0.019398838763823
        0.253982854283025        0.000106775548697        0.000024055448217       -0.020704806929447
        0.256401738609530        0.000114313505966        0.000025753792559       -0.021956683553536
        0.258820622936035        0.000121793240003        0.000027439040986       -0.023173991475022
        0.261239507262540        0.000129046009034        0.000029073172534       -0.024325891123875
        0.263658391589045        0.000136206949487        0.000030686638318       -0.025439419850761
        0.266077275915550        0.000143067447547        0.000032232433692       -0.026477026462343
        0.268496160242055        0.000149802272176        0.000033749939224       -0.027472813025131
        0.270915044568560        0.000156165018625        0.000035183635144       -0.028383126042416
        0.273333928895065        0.000162368489317        0.000036581471351       -0.029248567622993
        0.275752813221570        0.000168131321568        0.000037880050896       -0.030020092193348
        0.278171697548075        0.000173702010049        0.000039135365686       -0.030744131586992
        0.280590581874580        0.000178767792224        0.000040276942911       -0.031367047720809
        0.283009466201085        0.000183609790541        0.000041368126218       -0.031940337155946
        0.285428350527590        0.000187888084626        0.000042332322362       -0.032406645164669
        0.287847234854095        0.000191912670034        0.000043239380970       -0.032821685876189
        0.290266119180600        0.000195321339376        0.000044007685497       -0.033125325773658
        0.292685003507105        0.000198448563432        0.000044712600866       -0.033376581097921
        0.295103887833610        0.000200915279008        0.000045268710692       -0.033513524050733
        0.297522772160115        0.000203075451404        0.000045755773189       -0.033597504219341
        0.299941656486620        0.000204539072431        0.000046085903720       -0.033565814565310
        0.302360540813125        0.000205674111404        0.000046342016909       -0.033481131813931
        0.304779425139630        0.000206085913578        0.000046435178882       -0.033280998625845
        0.307198309466135        0.000206150536564        0.000046450127961       -0.033028391696741
        0.309617193792640        0.000205475263410        0.000046298364575       -0.032662129344028
        0.312036078119145        0.000204437993973        0.000046065043556       -0.032244456939098
        0.314454962445650        0.000202654709511        0.000045663622958       -0.031716474585289
        0.316873846772155        0.000200498679408        0.000045178215820       -0.031138677812749
        0.319292731098660        0.000197601403493        0.000044525774756       -0.030455418273743
        0.321711615425165        0.000194324931992        0.000043787886509       -0.029724452618132
        0.324130499751670        0.000190323043206        0.000042886521691       -0.028894301487597
        0.326549384078175        0.000185939979446        0.000041899256143       -0.028019039311890
        0.328968268404680        0.000180858374309        0.000040754560765       -0.027052205727696
        0.331387152731185        0.000175398192404        0.000039524542618       -0.026043310780040
        0.333806037057690        0.000169277193800        0.000038145586403       -0.024951681652072
        0.336224921384195        0.000162784834625        0.000036682926279       -0.023821457490653
        0.338643805710700        0.000155679846642        0.000035082178368       -0.022618427428192
        0.341062690037205        0.000148215304597        0.000033400380349       -0.021380642088752
        0.343481574363710        0.000140196215424        0.000031593575375       -0.020080921648279
        0.345900458690215        0.000131833872929        0.000029709387634       -0.018750611253131
        0.348319343016720        0.000122984211928        0.000027715336321       -0.017370016468478
        0.350738227343225        0.000113811928909        0.000025648546445       -0.015963270807435
        0.353157111669730        0.000104227788376        0.000023488893075       -0.014518497258177
        0.355575995996235        0.000094345758382        0.000021262070691       -0.013052230655144
        0.357994880322740        0.000084134494842        0.000018961000761       -0.011560615571129
        0.360413764649245        0.000073653883740        0.000016599191030       -0.010052326580488
        0.362832648975750        0.000062932617675        0.000014183093352       -0.008531602666405
        0.365251533302255        0.000051974004913        0.000011713465831       -0.006999126317046
        0.367670417628760        0.000040867941680        0.000009210554199       -0.005467171107892
        0.370089301955265        0.000029559587850        0.000006662012429       -0.003928427526714
        0.372508186281770        0.000018200185989        0.000004101912759       -0.002403012150684
        0.374927070608275        0.000006676153841        0.000001504670702       -0.000875755449876
        0.377345954934780       -0.000004800829965       -0.000001082019729        0.000625703321462
        0.379764839261285       -0.000016402670970       -0.000003696887604        0.002124132019184
        0.382183723587790       -0.000027859228418       -0.000006279061637        0.003584812612789
        0.384602607914295       -0.000039399281436       -0.000008880089250        0.005037724209311
        0.387021492240800       -0.000050697256734       -0.000011426604368        0.006441630284799
        0.389440376567305       -0.000062036326240       -0.000013982414103        0.007833215134279
        0.391859260893810       -0.000073039542434       -0.000016462571993        0.009165391290942
        0.394278145220315       -0.000084040976444       -0.000018942357850        0.010480931545150
        0.396697029546820       -0.000094617347686       -0.000021326380813        0.011727661419739
        0.399115913873325       -0.000105149156908       -0.000023700386363        0.012953725065236
        0.401534798199830       -0.000115172750151       -0.000025959882313        0.014102708828501
        0.403953682526335       -0.000125109667388       -0.000028199865162        0.015227322490700
        0.406372566852840       -0.000134462677400       -0.000030308273062        0.016267831088893
        0.408791451179345       -0.000143688121063       -0.000032387947678        0.017280629026034
        0.411210335505850       -0.000152262723708       -0.000034320955501        0.018203632894312
        0.413629219832355       -0.000160670630548       -0.000036216406516        0.019095979993522
        0.416048104158860       -0.000168370680954       -0.000037952334201        0.019894250385195
        0.418466988485365       -0.000175867174952       -0.000039642392749        0.020659337396819
        0.420885872811870       -0.000182609719550       -0.000041162533159        0.021327518918773
        0.423304757138375       -0.000189114586374       -0.000042629109343        0.021960428617030
        0.425723641464880       -0.000194831160662       -0.000043918020900        0.022495082030008
        0.428142525791385       -0.000200279100186       -0.000045146386214        0.022992825460282
        0.430561410117890       -0.000204916787548       -0.000046192131643        0.023392440285426
        0.432980294444395       -0.000209258420509       -0.000047171145960        0.023753962743400
        0.435399178770900       -0.000212780651372       -0.000047965472504        0.024018939705528
        0.437818063097405       -0.000215983260333       -0.000048687751164        0.024245096582953
        0.440236947423910       -0.000218370335335       -0.000049226208591        0.024377700408502
        0.442655831750415       -0.000220418324605       -0.000049688226169        0.024471203526738
        0.445074716076920       -0.000221667650160       -0.000049970219971        0.024475487092206
        0.447493600403425       -0.000222562714181       -0.000050172348349        0.024440822619720
        0.449912484729930       -0.000222688743885       -0.000050201126663        0.024322523907007
        0.452331369056435       -0.000222449738670       -0.000050147606193        0.024165843413235
        0.454750253382940       -0.000221483619140       -0.000049930180138        0.023932257164072
        0.457169137709445       -0.000220146136611       -0.000049629023886        0.023661243791928
        0.459588022035950       -0.000218135061701       -0.000049176022191        0.023321070157528
        0.462006906362455       -0.000215750712106       -0.000048638854406        0.022944782293502
        0.464425790688960       -0.000212756994691       -0.000047964314413        0.022507955141172
        0.466844675015465       -0.000209392407592       -0.000047206145589        0.022036650318998
        0.469263559341970       -0.000205492283335       -0.000046327243864        0.021514148178817
        0.471682443668475       -0.000201227842837       -0.000045366185908        0.020959090264311
