#           time (fs)       | force (atom_1) (H/b)   |  force (atom_2) (H/b)  |           ...          |  force (atom_N) (H/b)  |
        0.000000000000000       -0.000000000000000       -0.000000000000000       -0.001977038000788       -0.000000000000000       -0.000000000000000        0.001977038000788
        0.120944216325250       -0.000019427265768       -0.000019584891244       -0.005088698098846        0.000019427265338        0.000019584890814        0.005088698098846
        0.241888432650500       -0.000064462549303       -0.000064974764263       -0.008221182666863        0.000064462550998        0.000064974765959        0.008221182666863
        0.362832648975750       -0.000113982809053       -0.000115047924630       -0.011332983874766        0.000113982806468        0.000115047922045        0.011332983874766
        0.483776865301000       -0.000181828511015       -0.000183640828440       -0.014382639508733        0.000181828511852        0.000183640829277        0.014382639508733
        0.604721081626250       -0.000312907213296       -0.000315649683263       -0.017317505904844        0.000312907217870        0.000315649687837        0.017317505904844
        0.725665297951500       -0.000479727748336       -0.000483566829219       -0.020095842783526        0.000479727737840        0.000483566818722        0.020095842783526
        0.846609514276750       -0.000595362343842       -0.000600440320776       -0.022668473598234        0.000595362356060        0.000600440332994        0.022668473598234
        0.967553730602000       -0.000669570466750       -0.000675998032678       -0.024985149816440        0.000669570461026        0.000675998026953        0.024985149816440
        1.088497946927250       -0.000814937866050       -0.000822790341125       -0.027008201815875        0.000814937858922        0.000822790333997        0.027008201815875
        1.209442163252500       -0.001042123566785       -0.001051432041694       -0.028690567413468        0.001042123586404        0.001051432061312        0.028690567413468
        1.330386379577750       -0.001213000281811       -0.001223750285906       -0.030001321204083        0.001213000259038        0.001223750263132        0.030001321204083
        1.451330595903000       -0.001276598949098       -0.001288727035814       -0.030913254756727        0.001276598962491        0.001288727049207        0.030913254756727
        1.572274812228250       -0.001370972128913       -0.001384357795439       -0.031390197301661        0.001370972133466        0.001384357799993        0.031390197301661
        1.693219028553500       -0.001571457142484       -0.001585937854191       -0.031440174233121        0.001571457121861        0.001585937833568        0.031440174233121
        1.814163244878750       -0.001722888100418       -0.001738251061375       -0.031052756261960        0.001722888125864        0.001738251086821        0.031052756261960
        1.935107461204000       -0.001704860335011       -0.001720855368845       -0.030244522720409        0.001704860318138        0.001720855351972        0.030244522720409
        2.056051677529250       -0.001669862323285       -0.001686209216650       -0.029040671893314        0.001669862323884        0.001686209217249        0.029040671893314
        2.176995893854500       -0.001779677095783       -0.001796054735719       -0.027441753782738        0.001779677107604        0.001796054747540        0.027441753782738
        2.297940110179750       -0.001881154447392       -0.001897234078579       -0.025500022160046        0.001881154431513        0.001897234062700        0.025500022160046
        2.418884326505000       -0.001742380115114       -0.001757820473601       -0.023248743871801        0.001742380126447        0.001757820484934        0.023248743871801
        2.539828542830250       -0.001489226787674       -0.001503686146644       -0.020730985580071        0.001489226785410        0.001503686144380        0.020730985580071
        2.660772759155500       -0.001421182095027       -0.001434344171401       -0.018016389532743        0.001421182093250        0.001434344169624        0.018016389532743
        2.781716975480750       -0.001461956133301       -0.001473504694046       -0.015128366031632        0.001461956132386        0.001473504693132        0.015128366031632
        2.902661191806000       -0.001258574115739       -0.001268225467017       -0.012126522511398        0.001258574116781        0.001268225468059        0.012126522511398
        3.023605408131250       -0.000822716360844       -0.000830220530096       -0.009061945095994        0.000822716358561        0.000830220527813        0.009061945095994
        3.144549624456500       -0.000560970058592       -0.000566076751949       -0.005938084104605        0.000560970054658        0.000566076748015        0.005938084104605
        3.265493840781750       -0.000556401842841       -0.000558931619663       -0.002837465903988        0.000556401856746        0.000558931633568        0.002837465903988
        3.386438057107000       -0.000366347632609       -0.000366150395693        0.000213735566866        0.000366347618624        0.000366150381708       -0.000213735566866
        3.507382273432250        0.000178413652955        0.000181442784360        0.003176041150233       -0.000178413645392       -0.000181442776797       -0.003176041150233
        3.628326489757500        0.000596418216547        0.000602335720965        0.006011492465068       -0.000596418214507       -0.000602335718924       -0.006011492465068
        3.749270706082750        0.000595178766835        0.000604064607009        0.008757241580958       -0.000595178787459       -0.000604064627633       -0.008757241580958
        3.870214922408000        0.000654379106404        0.000666212894241        0.011327276107648       -0.000654379082964       -0.000666212870801       -0.011327276107648
        3.991159138733250        0.001211277290001        0.001225987543392        0.013690650229268       -0.001211277306383       -0.001225987559774       -0.013690650229268
        4.112103355058500        0.001804057606586        0.001821620899230        0.015909102023084       -0.001804057603736       -0.001821620896380       -0.015909102023084
        4.233047571383750        0.001826136341618        0.001846484839926        0.017955950224910       -0.001826136320995       -0.001846484819302       -0.017955950224910
        4.353991787709000        0.001678633901964        0.001701704813624        0.019849373778218       -0.001678633936893       -0.001701704848553       -0.019849373778218
        4.474936004034250        0.002107017531962        0.002132600421296        0.021477257155659       -0.002107017507014       -0.002132600396348       -0.021477257155659
        4.595880220359500        0.002819341096349        0.002847208981300        0.022845196754577       -0.002819341105661       -0.002847208990612       -0.022845196754577
        4.716824436684750        0.002928957448336        0.002959070960613        0.024121467153691       -0.002928957463156       -0.002959070975433       -0.024121467153691
        4.837768653010000        0.002557597950710        0.002589773825264        0.025199431529184       -0.002557597919850       -0.002589773794405       -0.025199431529184
        4.958712869335250        0.002717923017324        0.002751855139809        0.025997679240253       -0.002717923045931       -0.002751855168416       -0.025997679240253
        5.079657085660500        0.003467828247715        0.003503207493552        0.026531408534155       -0.003467828233967       -0.003503207479805       -0.026531408534155
        5.200601301985750        0.003712254075872        0.003748881137314        0.026897273973587       -0.003712254069083       -0.003748881130524       -0.026897273973587
        5.321545518311000        0.003178396389991        0.003216256979080        0.027238096099315       -0.003178396415495       -0.003216257004584       -0.027238096099315
        5.442489734636251        0.002957639463857        0.002996339190422        0.027286815271355       -0.002957639433277       -0.002996339159842       -0.027286815271355
        5.563433950961501        0.003595134065257        0.003634162847497        0.026980042016123       -0.003595134085703       -0.003634162867944       -0.026980042016123
        5.684378167286750        0.004060112083725        0.004099308597940        0.026574218156385       -0.004060112084456       -0.004099308598671       -0.026574218156385
        5.805322383612000        0.003543053992755        0.003582288715539        0.026095673854703       -0.003543053974255       -0.003582288697039       -0.026095673854703
        5.926266599937250        0.002950901953281        0.002989954924898        0.025489060377267       -0.002950901977750       -0.002989954949366       -0.025489060377267
        6.047210816262500        0.003267984958910        0.003306267265273        0.024524769799623       -0.003267984937763       -0.003306267244126       -0.024524769799623
        6.168155032587750        0.003807905408898        0.003844940452529        0.023292775315965       -0.003807905412280       -0.003844940455910       -0.023292775315965
        6.289099248913001        0.003455256842193        0.003490995568002        0.022071575399449       -0.003455256846054       -0.003490995571864       -0.022071575399449
        6.410043465238251        0.002622522497602        0.002656613258160        0.020677206606180       -0.002622522489717       -0.002656613250275       -0.020677206606180
        6.530987681563500        0.002502008362831        0.002533890144437        0.018994375819590       -0.002502008376633       -0.002533890158238       -0.018994375819590
        6.651931897888750        0.002898308457749        0.002927453500051        0.017058189435967       -0.002898308452345       -0.002927453494647       -0.017058189435967
        6.772876114214000        0.002610303851655        0.002636340083661        0.014972127647108       -0.002610303853059       -0.002636340085065       -0.014972127647108
        6.893820330539250        0.001618602575914        0.001641333989614        0.012844402864910       -0.001618602564999       -0.001641333978700       -0.012844402864910
        7.014764546864500        0.001061900996981        0.001080764932516        0.010474689369017       -0.001061900992184       -0.001080764927719       -0.010474689369017
        7.135708763189751        0.001208494253077        0.001222919455460        0.007872027355478       -0.001208494255722       -0.001222919458106       -0.007872027355478
        7.256652979515001        0.001010248843468        0.001020005795286        0.005233172236847       -0.001010248840396       -0.001020005792214       -0.005233172236847
        7.377597195840250       -0.000016323647843       -0.000011525270406        0.002529638819795        0.000016323618183        0.000011525240745       -0.002529638819795
        7.498541412165500       -0.000924140300141       -0.000924578823710       -0.000227244617670        0.000924140328825        0.000924578852394        0.000227244617670
        7.619485628490750       -0.001085438975781       -0.001091536241324       -0.003105975965626        0.001085438963673        0.001091536229216        0.003105975965626
        7.740429844816000       -0.001279793925142       -0.001291885826112       -0.006055377485789        0.001279793927333        0.001291885828304        0.006055377485789
        7.861374061141250       -0.002254031792262       -0.002272162847296       -0.008926391925760        0.002254031837656        0.002272162892690        0.008926391925760
        7.982318277466501       -0.003408690526870       -0.003433036660776       -0.011784545415671        0.003408690461463        0.003433036595368        0.011784545415671
        8.103262493791750       -0.003847313344586       -0.003877939119315       -0.014575571515049        0.003847313390643        0.003877939165372        0.014575571515049
        8.224206710117000       -0.003960744913126       -0.003997485398656       -0.017193632395721        0.003960744895778        0.003997485381308        0.017193632395721
        8.345150926442249       -0.004692617923928       -0.004735254841692       -0.019621173158798        0.004692617879445        0.004735254797209        0.019621173158798
        8.466095142767500       -0.005811326827051       -0.005859445885518       -0.021777562656175        0.005811326921380        0.005859445979848        0.021777562656175
        8.587039359092751       -0.006360613142045       -0.006413928585652       -0.023732297094680        0.006360613058879        0.006413928502486        0.023732297094680
        8.707983575418000       -0.006349888148266       -0.006408002159934       -0.025445407328152        0.006349888190954        0.006408002202623        0.025445407328152
        8.828927791743251       -0.006714920384056       -0.006777090967028       -0.026779873158353        0.006714920415334        0.006777090998305        0.026779873158353
        8.949872008068500       -0.007622622456560       -0.007688099931135       -0.027750455464784        0.007622622356800        0.007688099831374        0.027750455464784
        9.070816224393750       -0.008092618404795       -0.008160466751628       -0.028296857143225        0.008092618516791        0.008160466863625        0.028296857143225
        9.191760440718999       -0.007755134713193       -0.007824459494444       -0.028456457681383        0.007755134642852        0.007824459424103        0.028456457681383
        9.312704657044250       -0.007525824720040       -0.007595788258031       -0.028270698586795        0.007525824711408        0.007595788249400        0.028270698586795
        9.433648873369501       -0.007965515697284       -0.008035072202342       -0.027673248703746        0.007965515774485        0.008035072279543        0.027673248703746
        9.554593089694750       -0.008272796721124       -0.008341036133750       -0.026736597469142        0.008272796612179        0.008341036024805        0.026736597469142
        9.675537306020001       -0.007654070927850       -0.007720009240162       -0.025447969808044        0.007654071015785        0.007720009328097        0.025447969808044
        9.796481522345250       -0.006772258155338       -0.006834788010424       -0.023776488851130        0.006772258142362        0.006834787997449        0.023776488851130
        9.917425738670500       -0.006615071560601       -0.006673304202284       -0.021821071143426        0.006615071517637        0.006673304159320        0.021821071143426
       10.038369954995749       -0.006680173183357       -0.006733224081970       -0.019595614913519        0.006680173255955        0.006733224154568        0.019595614913519
       10.159314171321000       -0.005892030805422       -0.005939383284205       -0.017245465067094        0.005892030719649        0.005939383198432        0.017245465067094
       10.280258387646251       -0.004568546075613       -0.004609757861942       -0.014802343035377        0.004568546102011        0.004609757888340        0.014802343035377
       10.401202603971500       -0.003923932253680       -0.003958173065110       -0.012132246841617        0.003923932265482        0.003958173076912        0.012132246841617
       10.522146820296751       -0.003911116217395       -0.003937874772415       -0.009355330084182        0.003911116198499        0.003937874753518        0.009355330084182
       10.643091036622000       -0.003170045715249       -0.003189043393903       -0.006555508337858        0.003170045770624        0.003189043449278        0.006555508337858
       10.764035252947250       -0.001523612921191       -0.001534823029462       -0.003818857095890        0.001523612888458        0.001534822996729        0.003818857095890
       10.884979469272501       -0.000437607251797       -0.000440988159216       -0.001137314895390        0.000437607251152        0.000440988158571        0.001137314895390
       11.005923685597750       -0.000403633659645       -0.000398760672697        0.001619087030839        0.000403633633421        0.000398760646473       -0.001619087030839
       11.126867901923001       -0.000023690682821       -0.000010976712492        0.004173334049766        0.000023690670284        0.000010976699956       -0.004173334049766
       11.247812118248250        0.001549146491770        0.001568909761569        0.006410383144347       -0.001549146468944       -0.001568909738743       -0.006410383144347
       11.368756334573501        0.002952652169891        0.002979518400504        0.008612856726240       -0.002952652169897       -0.002979518400511       -0.008612856726240
       11.489700550898750        0.002939103878061        0.002973370378357        0.010859585007821       -0.002939103828602       -0.002973370328899       -0.010859585007821
       11.610644767224001        0.002805950141714        0.002847498282561        0.013019107091139       -0.002805950194882       -0.002847498335729       -0.013019107091139
       11.731588983549251        0.004093303062272        0.004140703776531        0.014688551898382       -0.004093303055118       -0.004140703769376       -0.014688551898382
       11.852533199874500        0.005735203714436        0.005787554112710        0.016045456003495       -0.005735203722012       -0.005787554120285       -0.016045456003495
       11.973477416199751        0.005874796856865        0.005933184678098        0.017703570582464       -0.005874796901447       -0.005933184722681       -0.017703570582464
       12.094421632525000        0.005174411423966        0.005238691574460        0.019283485490655       -0.005174411350831       -0.005238691501324       -0.019283485490655
       12.215365848850251        0.005834966361092        0.005903027214651        0.020203872424386       -0.005834966399617       -0.005903027253176       -0.020203872424386
       12.336310065175500        0.007535108826298        0.007605384789292        0.020645532233491       -0.007535108810444       -0.007605384773438       -0.020645532233491
       12.457254281500751        0.007845941973122        0.007919288298619        0.021326925522814       -0.007845941950160       -0.007919288275657       -0.021326925522814
       12.578198497826001        0.006713162323074        0.006791140778920        0.022443923148876       -0.006713162396640       -0.006791140852486       -0.022443923148876
       12.699142714151250        0.006574454745664        0.006654668648971        0.022855294720213       -0.006574454676096       -0.006654668579403       -0.022855294720213
       12.820086930476501        0.008087516042008        0.008166786470630        0.022361219146883       -0.008087516084343       -0.008166786512965       -0.022361219146883
       12.941031146801750        0.008858704338626        0.008938362500081        0.022248002518632       -0.008858704349700       -0.008938362511155       -0.022248002518632
       13.061975363127001        0.007619236539158        0.007701796707954        0.022831404415603       -0.007619236468609       -0.007701796637405       -0.022831404415603
       13.182919579452250        0.006716386564334        0.006801002829970        0.023170613974988       -0.006716386657096       -0.006801002922733       -0.023170613974988
       13.303863795777501        0.007826122392546        0.007908715894309        0.022395829390751       -0.007826122323942       -0.007908715825705       -0.022395829390751
       13.424808012102751        0.008973936515247        0.009053684720578        0.021413685931832       -0.008973936521866       -0.009053684727197       -0.021413685931832
