#     time (fs)  |  E_x (eV/ang)  | E_y (eV/ang) | E_z (eV/ang)
     0.00000000     0.00000000     0.00000000     0.00000000
     0.00241888     0.04163579     0.04163579     0.00000000
     0.00483777     0.08317512     0.08317512     0.00000000
     0.00725665     0.12452175     0.12452175     0.00000000
     0.00967554     0.16557991     0.16557991     0.00000000
     0.01209442     0.20625447     0.20625447     0.00000000
     0.01451331     0.24645120     0.24645120     0.00000000
     0.01693219     0.28607698     0.28607698     0.00000000
     0.01935107     0.32504001     0.32504001     0.00000000
     0.02176996     0.36325002     0.36325002     0.00000000
     0.02418884     0.40061849     0.40061849     0.00000000
     0.02660773     0.43705884     0.43705884     0.00000000
     0.02902661     0.47248667     0.47248667     0.00000000
     0.03144550     0.50681989     0.50681989     0.00000000
     0.03386438     0.53997896     0.53997896     0.00000000
     0.03628326     0.57188706     0.57188706     0.00000000
     0.03870215     0.60247028     0.60247028     0.00000000
     0.04112103     0.63165776     0.63165776     0.00000000
     0.04353992     0.65938187     0.65938187     0.00000000
     0.04595880     0.68557841     0.68557841     0.00000000
     0.04837769     0.71018666     0.71018666     0.00000000
     0.05079657     0.73314963     0.73314963     0.00000000
     0.05321546     0.75441412     0.75441412     0.00000000
     0.05563434     0.77393086     0.77393086     0.00000000
     0.05805322     0.79165463     0.79165463     0.00000000
     0.06047211     0.80754439     0.80754439     0.00000000
     0.06289099     0.82156331     0.82156331     0.00000000
     0.06530988     0.83367892     0.83367892     0.00000000
     0.06772876     0.84386315     0.84386315     0.00000000
     0.07014765     0.85209240     0.85209240     0.00000000
     0.07256653     0.85834762     0.85834762     0.00000000
     0.07498541     0.86261431     0.86261431     0.00000000
     0.07740430     0.86488258     0.86488258     0.00000000
     0.07982318     0.86514719     0.86514719     0.00000000
     0.08224207     0.86340751     0.86340751     0.00000000
     0.08466095     0.85966758     0.85966758     0.00000000
     0.08707984     0.85393606     0.85393606     0.00000000
     0.08949872     0.84622624     0.84622624     0.00000000
     0.09191760     0.83655596     0.83655596     0.00000000
     0.09433649     0.82494765     0.82494765     0.00000000
     0.09675537     0.81142817     0.81142817     0.00000000
     0.09917426     0.79602887     0.79602887     0.00000000
     0.10159314     0.77878541     0.77878541     0.00000000
     0.10401203     0.75973775     0.75973775     0.00000000
     0.10643091     0.73893000     0.73893000     0.00000000
     0.10884979     0.71641038     0.71641038     0.00000000
     0.11126868     0.69223105     0.69223105     0.00000000
     0.11368756     0.66644803     0.66644803     0.00000000
     0.11610645     0.63912106     0.63912106     0.00000000
     0.11852533     0.61031344     0.61031344     0.00000000
     0.12094422     0.58009191     0.58009191     0.00000000
     0.12336310     0.54852648     0.54852648     0.00000000
     0.12578198     0.51569029     0.51569029     0.00000000
     0.12820087     0.48165940     0.48165940     0.00000000
     0.13061975     0.44651265     0.44651265     0.00000000
     0.13303864     0.41033146     0.41033146     0.00000000
     0.13545752     0.37319967     0.37319967     0.00000000
     0.13787641     0.33520328     0.33520328     0.00000000
     0.14029529     0.29643033     0.29643033     0.00000000
     0.14271418     0.25697064     0.25697064     0.00000000
     0.14513306     0.21691563     0.21691563     0.00000000
     0.14755194     0.17635809     0.17635809     0.00000000
     0.14997083     0.13539199     0.13539199     0.00000000
     0.15238971     0.09411222     0.09411222     0.00000000
     0.15480860     0.05261442     0.05261442     0.00000000
     0.15722748     0.01099473     0.01099473     0.00000000
     0.15964637    -0.03065043    -0.03065043    -0.00000000
     0.16206525    -0.07222458    -0.07222458    -0.00000000
     0.16448413    -0.11363141    -0.11363141    -0.00000000
     0.16690302    -0.15477500    -0.15477500    -0.00000000
     0.16932190    -0.19556001    -0.19556001    -0.00000000
     0.17174079    -0.23589197    -0.23589197    -0.00000000
     0.17415967    -0.27567744    -0.27567744    -0.00000000
     0.17657856    -0.31482426    -0.31482426    -0.00000000
     0.17899744    -0.35324172    -0.35324172    -0.00000000
     0.18141632    -0.39084082    -0.39084082    -0.00000000
     0.18383521    -0.42753447    -0.42753447    -0.00000000
     0.18625409    -0.46323765    -0.46323765    -0.00000000
     0.18867298    -0.49786765    -0.49786765    -0.00000000
     0.19109186    -0.53134424    -0.53134424    -0.00000000
     0.19351075    -0.56358987    -0.56358987    -0.00000000
     0.19592963    -0.59452984    -0.59452984    -0.00000000
     0.19834851    -0.62409246    -0.62409246    -0.00000000
     0.20076740    -0.65220925    -0.65220925    -0.00000000
     0.20318628    -0.67881507    -0.67881507    -0.00000000
     0.20560517    -0.70384828    -0.70384828    -0.00000000
     0.20802405    -0.72725089    -0.72725089    -0.00000000
     0.21044294    -0.74896868    -0.74896868    -0.00000000
     0.21286182    -0.76895134    -0.76895134    -0.00000000
     0.21528071    -0.78715257    -0.78715257    -0.00000000
     0.21769959    -0.80353021    -0.80353021    -0.00000000
     0.22011847    -0.81804632    -0.81804632    -0.00000000
     0.22253736    -0.83066726    -0.83066726    -0.00000000
     0.22495624    -0.84136380    -0.84136380    -0.00000000
     0.22737513    -0.85011116    -0.85011116    -0.00000000
     0.22979401    -0.85688907    -0.85688907    -0.00000000
     0.23221290    -0.86168183    -0.86168183    -0.00000000
     0.23463178    -0.86447833    -0.86447833    -0.00000000
     0.23705066    -0.86527210    -0.86527210     0.00000000
     0.23946955    -0.86406130    -0.86406130     0.00000000
     0.24188843    -0.86084874    -0.86084874     0.00000000
     0.24430732    -0.85564185    -0.85564185     0.00000000
     0.24672620    -0.84845270    -0.84845270     0.00000000
     0.24914509    -0.83929794    -0.83929794     0.00000000
     0.25156397    -0.82819878    -0.82819878     0.00000000
     0.25398285    -0.81518095    -0.81518095     0.00000000
     0.25640174    -0.80027458    -0.80027458     0.00000000
     0.25882062    -0.78351423    -0.78351423     0.00000000
     0.26123951    -0.76493871    -0.76493871     0.00000000
     0.26365839    -0.74459106    -0.74459106     0.00000000
     0.26607728    -0.72251842    -0.72251842     0.00000000
     0.26849616    -0.69877192    -0.69877192     0.00000000
     0.27091504    -0.67340659    -0.67340659     0.00000000
     0.27333393    -0.64648117    -0.64648117     0.00000000
     0.27575281    -0.61805806    -0.61805806     0.00000000
     0.27817170    -0.58820310    -0.58820310     0.00000000
     0.28059058    -0.55698544    -0.55698544     0.00000000
     0.28300947    -0.52447743    -0.52447743     0.00000000
     0.28542835    -0.49075436    -0.49075436     0.00000000
     0.28784723    -0.45589436    -0.45589436     0.00000000
     0.29026612    -0.41997819    -0.41997819     0.00000000
     0.29268500    -0.38308906    -0.38308906     0.00000000
     0.29510389    -0.34531243    -0.34531243     0.00000000
     0.29752277    -0.30673582    -0.30673582     0.00000000
     0.29994166    -0.26744859    -0.26744859     0.00000000
     0.30236054    -0.22754177    -0.22754177     0.00000000
     0.30477943    -0.18710780    -0.18710780     0.00000000
     0.30719831    -0.14624036    -0.14624036     0.00000000
     0.30961719    -0.10503412    -0.10503412     0.00000000
     0.31203608    -0.06358456    -0.06358456     0.00000000
     0.31445496    -0.02198769    -0.02198769     0.00000000
     0.31687385     0.01966013     0.01966013     0.00000000
     0.31929273     0.06126239     0.06126239     0.00000000
     0.32171162     0.10272273     0.10272273     0.00000000
     0.32413050     0.14394509     0.14394509     0.00000000
     0.32654938     0.18483397     0.18483397     0.00000000
     0.32896827     0.22529465     0.22529465     0.00000000
     0.33138715     0.26523339     0.26523339     0.00000000
     0.33380604     0.30455767     0.30455767     0.00000000
     0.33622492     0.34317638     0.34317638     0.00000000
     0.33864381     0.38100005     0.38100005     0.00000000
     0.34106269     0.41794107     0.41794107     0.00000000
     0.34348157     0.45391384     0.45391384     0.00000000
     0.34590046     0.48883503     0.48883503     0.00000000
     0.34831934     0.52262374     0.52262374     0.00000000
     0.35073823     0.55520169     0.55520169     0.00000000
     0.35315711     0.58649341     0.58649341     0.00000000
     0.35557600     0.61642640     0.61642640     0.00000000
     0.35799488     0.64493132     0.64493132     0.00000000
     0.36041376     0.67194213     0.67194213     0.00000000
     0.36283265     0.69739625     0.69739625     0.00000000
     0.36525153     0.72123472     0.72123472     0.00000000
     0.36767042     0.74340231     0.74340231     0.00000000
     0.37008930     0.76384766     0.76384766     0.00000000
     0.37250819     0.78252342     0.78252342     0.00000000
     0.37492707     0.79938630     0.79938630     0.00000000
     0.37734595     0.81439725     0.81439725     0.00000000
     0.37976484     0.82752149     0.82752149     0.00000000
     0.38218372     0.83872861     0.83872861     0.00000000
     0.38460261     0.84799266     0.84799266     0.00000000
     0.38702149     0.85529216     0.85529216     0.00000000
     0.38944038     0.86061022     0.86061022     0.00000000
     0.39185926     0.86393450     0.86393450     0.00000000
     0.39427815     0.86525731     0.86525731     0.00000000
     0.39669703     0.86457558     0.86457558     0.00000000
     0.39911591     0.86189090     0.86189090     0.00000000
     0.40153480     0.85720948     0.85720948     0.00000000
     0.40395368     0.85054216     0.85054216     0.00000000
     0.40637257     0.84190440     0.84190440     0.00000000
     0.40879145     0.83131620     0.83131620     0.00000000
     0.41121034     0.81880210     0.81880210     0.00000000
     0.41362922     0.80439108     0.80439108     0.00000000
     0.41604810     0.78811653     0.78811653     0.00000000
     0.41846699     0.77001616     0.77001616     0.00000000
     0.42088587     0.75013189     0.75013189     0.00000000
     0.42330476     0.72850980     0.72850980     0.00000000
     0.42572364     0.70519997     0.70519997     0.00000000
     0.42814253     0.68025641     0.68025641     0.00000000
     0.43056141     0.65373691     0.65373691     0.00000000
     0.43298029     0.62570289     0.62570289     0.00000000
     0.43539918     0.59621931     0.59621931     0.00000000
     0.43781806     0.56535447     0.56535447     0.00000000
     0.44023695     0.53317988     0.53317988     0.00000000
     0.44265583     0.49977008     0.49977008     0.00000000
     0.44507472     0.46520246     0.46520246     0.00000000
     0.44749360     0.42955710     0.42955710     0.00000000
     0.44991248     0.39291660     0.39291660     0.00000000
     0.45233137     0.35536582     0.35536582     0.00000000
     0.45475025     0.31699178     0.31699178     0.00000000
     0.45716914     0.27788335     0.27788335     0.00000000
     0.45958802     0.23813116     0.23813116     0.00000000
     0.46200691     0.19782729     0.19782729     0.00000000
     0.46442579     0.15706512     0.15706512     0.00000000
     0.46684468     0.11593907     0.11593907     0.00000000
     0.46926356     0.07454443     0.07454443     0.00000000
     0.47168244     0.03297709     0.03297709     0.00000000
     0.47410133    -0.00866665    -0.00866665    -0.00000000
     0.47652021    -0.05029030    -0.05029030    -0.00000000
     0.47893910    -0.09179746    -0.09179746    -0.00000000
     0.48135798    -0.13309194    -0.13309194    -0.00000000
     0.48377687    -0.17407809    -0.17407809    -0.00000000
     0.48619575    -0.21466096    -0.21466096    -0.00000000
     0.48861463    -0.25474652    -0.25474652    -0.00000000
     0.49103352    -0.29424191    -0.29424191    -0.00000000
     0.49345240    -0.33305563    -0.33305563    -0.00000000
     0.49587129    -0.37109777    -0.37109777    -0.00000000
     0.49829017    -0.40828018    -0.40828018    -0.00000000
     0.50070906    -0.44451674    -0.44451674    -0.00000000
     0.50312794    -0.47972348    -0.47972348    -0.00000000
     0.50554682    -0.51381885    -0.51381885    -0.00000000
     0.50796571    -0.54672386    -0.54672386    -0.00000000
     0.51038459    -0.57836228    -0.57836228    -0.00000000
     0.51280348    -0.60866081    -0.60866081    -0.00000000
     0.51522236    -0.63754925    -0.63754925    -0.00000000
     0.51764125    -0.66496069    -0.66496069    -0.00000000
     0.52006013    -0.69083162    -0.69083162    -0.00000000
     0.52247901    -0.71510210    -0.71510210    -0.00000000
     0.52489790    -0.73771591    -0.73771591    -0.00000000
     0.52731678    -0.75862066    -0.75862066    -0.00000000
     0.52973567    -0.77776791    -0.77776791    -0.00000000
     0.53215455    -0.79511331    -0.79511331    -0.00000000
     0.53457344    -0.81061668    -0.81061668    -0.00000000
     0.53699232    -0.82424210    -0.82424210    -0.00000000
     0.53941120    -0.83595800    -0.83595800    -0.00000000
     0.54183009    -0.84573724    -0.84573724    -0.00000000
     0.54424897    -0.85355716    -0.85355716    -0.00000000
     0.54666786    -0.85939965    -0.85939965    -0.00000000
     0.54908674    -0.86325118    -0.86325118    -0.00000000
     0.55150563    -0.86510281    -0.86510281    -0.00000000
     0.55392451    -0.86495027    -0.86495027     0.00000000
     0.55634340    -0.86279390    -0.86279390     0.00000000
     0.55876228    -0.85863870    -0.85863870     0.00000000
     0.56118116    -0.85249430    -0.85249430     0.00000000
     0.56360005    -0.84437492    -0.84437492     0.00000000
     0.56601893    -0.83429939    -0.83429939     0.00000000
     0.56843782    -0.82229104    -0.82229104     0.00000000
     0.57085670    -0.80837770    -0.80837770     0.00000000
     0.57327559    -0.79259159    -0.79259159     0.00000000
     0.57569447    -0.77496928    -0.77496928     0.00000000
     0.57811335    -0.75555161    -0.75555161     0.00000000
     0.58053224    -0.73438356    -0.73438356     0.00000000
     0.58295112    -0.71151416    -0.71151416     0.00000000
     0.58537001    -0.68699640    -0.68699640     0.00000000
     0.58778889    -0.66088708    -0.66088708     0.00000000
     0.59020778    -0.63324669    -0.63324669     0.00000000
     0.59262666    -0.60413926    -0.60413926     0.00000000
     0.59504554    -0.57363222    -0.57363222     0.00000000
     0.59746443    -0.54179625    -0.54179625     0.00000000
     0.59988331    -0.50870510    -0.50870510     0.00000000
     0.60230220    -0.47443544    -0.47443544     0.00000000
     0.60472108    -0.43906666    -0.43906666     0.00000000
     0.60713997    -0.40268069    -0.40268069     0.00000000
     0.60955885    -0.36536184    -0.36536184     0.00000000
     0.61197773    -0.32719655    -0.32719655     0.00000000
     0.61439662    -0.28827325    -0.28827325     0.00000000
     0.61681550    -0.24868211    -0.24868211     0.00000000
     0.61923439    -0.20851485    -0.20851485     0.00000000
     0.62165327    -0.16786452    -0.16786452     0.00000000
     0.62407216    -0.12682530    -0.12682530     0.00000000
     0.62649104    -0.08549227    -0.08549227     0.00000000
     0.62890992    -0.04396117    -0.04396117     0.00000000
     0.63132881    -0.00232823    -0.00232823     0.00000000
     0.63374769     0.03931010     0.03931010     0.00000000
     0.63616658     0.08085736     0.08085736     0.00000000
     0.63858546     0.12221730     0.12221730     0.00000000
     0.64100435     0.16329410     0.16329410     0.00000000
     0.64342323     0.20399260     0.20399260     0.00000000
     0.64584212     0.24421851     0.24421851     0.00000000
     0.64826100     0.28387864     0.28387864     0.00000000
     0.65067988     0.32288111     0.32288111     0.00000000
     0.65309877     0.36113556     0.36113556     0.00000000
     0.65551765     0.39855338     0.39855338     0.00000000
     0.65793654     0.43504786     0.43504786     0.00000000
     0.66035542     0.47053447     0.47053447     0.00000000
     0.66277431     0.50493100     0.50493100     0.00000000
     0.66519319     0.53815776     0.53815776     0.00000000
     0.66761207     0.57013776     0.57013776     0.00000000
     0.67003096     0.60079694     0.60079694     0.00000000
     0.67244984     0.63006425     0.63006425     0.00000000
     0.67486873     0.65787189     0.65787189     0.00000000
     0.67728761     0.68415545     0.68415545     0.00000000
     0.67970650     0.70885402     0.70885402     0.00000000
     0.68212538     0.73191040     0.73191040     0.00000000
     0.68454426     0.75327116     0.75327116     0.00000000
     0.68696315     0.77288683     0.77288683     0.00000000
     0.68938203     0.79071195     0.79071195     0.00000000
     0.69180092     0.80670523     0.80670523     0.00000000
     0.69421980     0.82082963     0.82082963     0.00000000
     0.69663869     0.83305241     0.83305241     0.00000000
     0.69905757     0.84334526     0.84334526     0.00000000
     0.70147645     0.85168434     0.85168434     0.00000000
     0.70389534     0.85805033     0.85805033     0.00000000
     0.70631422     0.86242847     0.86242847     0.00000000
     0.70873311     0.86480863     0.86480863     0.00000000
     0.71115199     0.86518530     0.86518530     0.00000000
     0.71357088     0.86355759     0.86355759     0.00000000
     0.71598976     0.85992929     0.85992929     0.00000000
     0.71840864     0.85430879     0.85430879     0.00000000
     0.72082753     0.84670911     0.84670911     0.00000000
     0.72324641     0.83714787     0.83714787     0.00000000
     0.72566530     0.82564722     0.82564722     0.00000000
     0.72808418     0.81223379     0.81223379     0.00000000
     0.73050307     0.79693867     0.79693867     0.00000000
     0.73292195     0.77979728     0.77979728     0.00000000
     0.73534084     0.76084933     0.76084933     0.00000000
     0.73775972     0.74013874     0.74013874     0.00000000
     0.74017860     0.71771346     0.71771346     0.00000000
     0.74259749     0.69362547     0.69362547     0.00000000
     0.74501637     0.66793055     0.66793055     0.00000000
     0.74743526     0.64068824     0.64068824     0.00000000
     0.74985414     0.61196166     0.61196166     0.00000000
     0.75227303     0.58181734     0.58181734     0.00000000
     0.75469191     0.55032514     0.55032514     0.00000000
     0.75711079     0.51755799     0.51755799     0.00000000
     0.75952968     0.48359183     0.48359183     0.00000000
     0.76194856     0.44850533     0.44850533     0.00000000
     0.76436745     0.41237977     0.41237977     0.00000000
     0.76678633     0.37529886     0.37529886     0.00000000
     0.76920522     0.33734850     0.33734850     0.00000000
     0.77162410     0.29861660     0.29861660     0.00000000
     0.77404298     0.25919290     0.25919290     0.00000000
     0.77646187     0.21916873     0.21916873     0.00000000
     0.77888075     0.17863682     0.17863682     0.00000000
     0.78129964     0.13769105     0.13769105     0.00000000
     0.78371852     0.09642630     0.09642630     0.00000000
     0.78613741     0.05493815     0.05493815     0.00000000
