#           time (fs)    |     mu_x (e.angstrom)   |     mu_y (e.angstrom)   |     mu_z (e.angstrom)   |
        0.000000000000000       -0.000000000000000       -0.000000000000000        0.000000000000000
        0.002418884326505        0.000000001846429        0.000000001864175        0.000029377137886
        0.004837768653010        0.000000007386421        0.000000007458827        0.000058758477543
        0.007256652979515        0.000000016531457        0.000000016692448        0.000087658427062
        0.009675537306020        0.000000029314340        0.000000029601695        0.000116570169125
        0.012094421632525        0.000000045441478        0.000000045885154        0.000144541391224
        0.014513305959030        0.000000065098561        0.000000065736693        0.000172539395433
        0.016932190285535        0.000000087677601        0.000000088534591        0.000199160589287
        0.019351074612040        0.000000113632779        0.000000114746669        0.000225830495463
        0.021769958938545        0.000000141942154        0.000000143330368        0.000250716924821
        0.024188843265050        0.000000173434655        0.000000175134756        0.000275680226257
        0.026607727591555        0.000000206587960        0.000000208609160        0.000298489183838
        0.029026611918060        0.000000242699034        0.000000245078102        0.000321408454400
        0.031445496244565        0.000000279674926        0.000000282411857        0.000341843784201
        0.033864380571070        0.000000319357662        0.000000322488180        0.000362426984780
        0.036283264897575        0.000000359032261        0.000000362546388        0.000380242600962
        0.038702149224080        0.000000401143664        0.000000405075892        0.000398246409337
        0.041121033550585        0.000000442324523        0.000000446654417        0.000413248770064
        0.043539917877090        0.000000485658953        0.000000490419644        0.000428480897425
        0.045958802203595        0.000000527119657        0.000000532280049        0.000440530412318
        0.048377686530100        0.000000570442702        0.000000576034488        0.000452850889353
        0.050796570856605        0.000000610957164        0.000000616938666        0.000461862259620
        0.053215455183110        0.000000653039055        0.000000659440492        0.000471183694803
        0.055634339509615        0.000000691414585        0.000000698184063        0.000477125205371
        0.058053223836120        0.000000731062266        0.000000738228525        0.000483412037518
        0.060472108162625        0.000000766170565        0.000000773672129        0.000486303840164
        0.062890992489130        0.000000802257602        0.000000810121752        0.000489570626164
        0.065309876815635        0.000000833062875        0.000000841219439        0.000489482071377
        0.067728761142140        0.000000864556449        0.000000873031281        0.000489790867840
        0.070147645468645        0.000000890139945        0.000000898855295        0.000486836960661
        0.072566529795150        0.000000916124275        0.000000925104597        0.000484293874782
        0.074985414121655        0.000000935704648        0.000000944865932        0.000478630945764
        0.077404298448160        0.000000955400280        0.000000964765600        0.000473381945663
        0.079823182774665        0.000000968349295        0.000000977829864        0.000465202642144
        0.082242067101170        0.000000981127831        0.000000990745342        0.000457428730038
        0.084660951427675        0.000000986981072        0.000000996643565        0.000446956444850
        0.087079835754180        0.000000992375032        0.000001002102791        0.000436868307392
        0.089498720080685        0.000000990837396        0.000001000536977        0.000424351171722
        0.091917604407190        0.000000988545037        0.000000998235250        0.000412183430564
        0.094336488733695        0.000000979490966        0.000000989078610        0.000397888004758
        0.096755373060200        0.000000969376033        0.000000978878342        0.000383893196622
        0.099174257386705        0.000000952844553        0.000000962170284        0.000368097997181
        0.101593141713210        0.000000934931080        0.000000944095745        0.000352540416396
        0.104012026039715        0.000000911115889        0.000000920031866        0.000335529419132
        0.106430910366220        0.000000885578287        0.000000894259176        0.000318678956679
        0.108849794692725        0.000000854813249        0.000000863176613        0.000300735215003
        0.111268679019230        0.000000821962076        0.000000830019376        0.000282861326488
        0.113687563345735        0.000000784702622        0.000000792378024        0.000264260840049
        0.116106447672240        0.000000744966527        0.000000752269090        0.000245626770841
        0.118525331998745        0.000000701767582        0.000000708629314        0.000226632733362
        0.120944216325250        0.000000655672047        0.000000662099317        0.000207490122424
        0.123363100651755        0.000000607163188        0.000000613096864        0.000188347668650
        0.125781984978260        0.000000555306765        0.000000560750225        0.000168931643443
        0.128200869304765        0.000000502165422        0.000000507069165        0.000149863203841
        0.130619753631270        0.000000445194256        0.000000449558363        0.000130388067358
        0.133038637957775        0.000000388117817        0.000000391902919        0.000111589425774
        0.135457522284280        0.000000326699292        0.000000329901880        0.000092245023412
        0.137876406610785        0.000000266377015        0.000000268968068        0.000073882157537
        0.140295290937290        0.000000201173394        0.000000203145547        0.000054830996401
        0.142714175263795        0.000000138259062        0.000000139593557        0.000037037763986
        0.145133059590300        0.000000069902008        0.000000070587409        0.000018412940653
        0.147551943916805        0.000000004988240        0.000000005015668        0.000001289656165
        0.149970828243310       -0.000000065944906       -0.000000066591105       -0.000016806368758
        0.152389712569815       -0.000000132349800       -0.000000133669303       -0.000033193441536
        0.154808596896320       -0.000000205357147       -0.000000207369892       -0.000050689202267
        0.157227481222825       -0.000000272848915       -0.000000275546334       -0.000066307435893
        0.159646365549330       -0.000000347521782       -0.000000350928051       -0.000083161952922
        0.162065249875835       -0.000000415815846       -0.000000419915368       -0.000098011034385
        0.164484134202340       -0.000000491852446       -0.000000496673468       -0.000114212456719
        0.166903018528845       -0.000000560794702       -0.000000566316047       -0.000128322191885
        0.169321902855350       -0.000000638009160       -0.000000644262834       -0.000143885627079
        0.171740787181855       -0.000000707581446       -0.000000714542334       -0.000157312924565
        0.174159671508360       -0.000000785907673       -0.000000793611070       -0.000172277511623
        0.176578555834865       -0.000000856227478       -0.000000864646132       -0.000185102617419
        0.178997440161370       -0.000000935717553       -0.000000944889406       -0.000199527914713
        0.181416324487875       -0.000001007031740       -0.000001016929314       -0.000211849985754
        0.183835208814380       -0.000001087848615       -0.000001098511676       -0.000225811761854
        0.186254093140885       -0.000001160521054       -0.000001171923865       -0.000237743881999
        0.188672977467390       -0.000001242925553       -0.000001255108696       -0.000251329411309
        0.191091861793895       -0.000001317418748       -0.000001330360204       -0.000262993166449
        0.193510746120400       -0.000001401750981       -0.000001415490947       -0.000276296143626
        0.195929630446905       -0.000001478601969       -0.000001493124075       -0.000287815883665
        0.198348514773410       -0.000001565257469       -0.000001580600141       -0.000300931080604
        0.200767399099915       -0.000001645048400       -0.000001661202746       -0.000312428004608
        0.203186283426420       -0.000001734449455       -0.000001751450562       -0.000325445801160
        0.205605167752925       -0.000001817773474       -0.000001835621602       -0.000337032007787
        0.208024052079430       -0.000001910336271       -0.000001929061434       -0.000350032932117
        0.210442936405935       -0.000001997759464       -0.000002017372545       -0.000361805580481
        0.212861820732440       -0.000002093857828       -0.000002114381884       -0.000374854996990
        0.215280705058945       -0.000002185878144       -0.000002207335894       -0.000386890723183
        0.217699589385450       -0.000002285804798       -0.000002308210329       -0.000400033805066
        0.220118473711955       -0.000002382808994       -0.000002406197788       -0.000412383536700
        0.222537358038460       -0.000002486735353       -0.000002511110417       -0.000425640656562
        0.224956242364965       -0.000002588955130       -0.000002614365296       -0.000438324961847
        0.227375126691470       -0.000002696890793       -0.000002723325809       -0.000451687627303
        0.229794011017975       -0.000002804359351       -0.000002831881635       -0.000464692726450
        0.232212895344480       -0.000002916112473       -0.000002944696307       -0.000478120178412
        0.234631779670985       -0.000003028622814       -0.000003058344053       -0.000491394733699
        0.237050663997490       -0.000003143762635       -0.000003174577900       -0.000504811313241
        0.239469548323995       -0.000003260828933       -0.000003292826977       -0.000518264100000
        0.241888432650500       -0.000003378651734       -0.000003411769383       -0.000531557475483
        0.244307316977005       -0.000003499475121       -0.000003533813092       -0.000545056019865
        0.246726201303510       -0.000003618974874       -0.000003654448166       -0.000558076349606
        0.249145085630015       -0.000003742414948       -0.000003779134928       -0.000571446600516
        0.251563969956520       -0.000003862259885       -0.000003900117847       -0.000584006688035
        0.253982854283025       -0.000003986813181       -0.000004025929461       -0.000597033770382
        0.256401738609530       -0.000004105329428       -0.000004145569942       -0.000608910249402
        0.258820622936035       -0.000004229116001       -0.000004270608034       -0.000621340324198
        0.261239507262540       -0.000004344279328       -0.000004386862004       -0.000632275889561
        0.263658391589045       -0.000004465038448       -0.000004508843688       -0.000643819123782
        0.266077275915550       -0.000004574475039       -0.000004619314061       -0.000653525802563
        0.268496160242055       -0.000004689570879       -0.000004735577672       -0.000663860428472
        0.270915044568560       -0.000004790567870       -0.000004837524992       -0.000672023863308
        0.273333928895065       -0.000004897005832       -0.000004945046579       -0.000680801283579
        0.275752813221570       -0.000004986532168       -0.000005035410080       -0.000687085977944
        0.278171697548075       -0.000005080986311       -0.000005130831102       -0.000693936849865
        0.280590581874580       -0.000005155724270       -0.000005206260541       -0.000697992303203
        0.283009466201085       -0.000005234576068       -0.000005285927003       -0.000702533512907
        0.285428350527590       -0.000005290963562       -0.000005342825375       -0.000704001152552
        0.287847234854095       -0.000005350351945       -0.000005402838363       -0.000705843569052
        0.290266119180600       -0.000005384635459       -0.000005437415359       -0.000704364366190
        0.292685003507105       -0.000005420517866       -0.000005473692689       -0.000703121245487
        0.295103887833610       -0.000005428815644       -0.000005482028503       -0.000698343884363
        0.297522772160115       -0.000005437039508       -0.000005490376904       -0.000693639776307
        0.299941656486620       -0.000005415414339       -0.000005468495733       -0.000685229230052
        0.302360540813125       -0.000005391798171       -0.000005444692731       -0.000676709225558
        0.304779425139630       -0.000005336338858       -0.000005388645041       -0.000664355578381
        0.307198309466135       -0.000005276761835       -0.000005328529422       -0.000651694722098
        0.309617193792640       -0.000005183672177       -0.000005234481800       -0.000635122066868
        0.312036078119145       -0.000005084170864       -0.000005134051281       -0.000618034751039
        0.314454962445650       -0.000004949864744       -0.000004998382459       -0.000597009983466
        0.316873846772155       -0.000004806735351       -0.000004853896947       -0.000575259132545
        0.319292731098660       -0.000004627936296       -0.000004673298337       -0.000549600458595
        0.321711615425165       -0.000004437840647       -0.000004481386936       -0.000523006311498
        0.324130499751670       -0.000004211684027       -0.000004252965828       -0.000492591283462
        0.326549384078175       -0.000003971757227       -0.000004010735564       -0.000461039581218
        0.328968268404680       -0.000003695893075       -0.000003732118957       -0.000425812480131
        0.331387152731185       -0.000003403850697       -0.000003437263014       -0.000389261871232
        0.333806037057690       -0.000003076545018       -0.000003106699914       -0.000349240259115
        0.336224921384195       -0.000002730787519       -0.000002757603071       -0.000307728743044
        0.338643805710700       -0.000002351019823       -0.000002374062988       -0.000263009017742
        0.341062690037205       -0.000001950731802       -0.000001969901852       -0.000216659258941
        0.343481574363710       -0.000001518286568       -0.000001533167150       -0.000167421057005
        0.345900458690215       -0.000001063528462       -0.000001074002754       -0.000116444416783
        0.348319343016720       -0.000000579078195       -0.000000584752531       -0.000062953725827
        0.350738227343225       -0.000000070868010       -0.000000071612860       -0.000007652878181
        0.353157111669730        0.000000463954389        0.000000468503979        0.000049736260882
        0.355575995996235        0.000001023571659        0.000001033553883        0.000108966242036
        0.357994880322740        0.000001606113427        0.000001621858572        0.000169811540654
        0.360413764649245        0.000002214010908        0.000002235661184        0.000232483711189
        0.362832648975750        0.000002840554939        0.000002868400183        0.000296256020298
        0.365251533302255        0.000003492485587        0.000003526666828        0.000361793774355
        0.367670417628760        0.000004158222840        0.000004198983957        0.000427880100235
        0.370089301955265        0.000004848799596        0.000004896274769        0.000495621090942
        0.372508186281770        0.000005547820070        0.000005602202098        0.000563329259094
        0.374927070608275        0.000006270516065        0.000006331926231        0.000632531035173
        0.377345954934780        0.000006995819757        0.000007064395143        0.000701095992417
        0.379764839261285        0.000007742989847        0.000007818832511        0.000770943323618
        0.382183723587790        0.000008486518785        0.000008569706048        0.000839535038743
        0.384602607914295        0.000009249443366        0.000009340051575        0.000909148871895
        0.387021492240800        0.000010002135479        0.000010100178842        0.000976881765252
        0.389440376567305        0.000010771087157        0.000010876609783        0.001045329721758
        0.391859260893810        0.000011522952354        0.000011635902764        0.001111273524498
        0.394278145220315        0.000012287285625        0.000012407669267        0.001177581819836
        0.396697029546820        0.000013027504051        0.000013155202049        0.001240773734811
        0.399115913873325        0.000013775767737        0.000013910740688        0.001303940371559
        0.401534798199830        0.000014492809758        0.000014634870624        0.001363398380556
        0.403953682526335        0.000015212881473        0.000015361940188        0.001422407439258
        0.406372566852840        0.000015894648508        0.000016050450107        0.001477144575883
        0.408791451179345        0.000016573890008        0.000016736288471        0.001530981403166
        0.411210335505850        0.000017207874881        0.000017376548600        0.001580020787770
        0.413629219832355        0.000017833306678        0.000018008049052        0.001627687859029
        0.416048104158860        0.000018406771729        0.000018587196879        0.001670078272023
        0.418466988485365        0.000018965264926        0.000019151101831        0.001710611487159
        0.420885872811870        0.000019465435723        0.000019656237709        0.001745443240382
        0.423304757138375        0.000019943918590        0.000020139347308        0.001777928395920
        0.425723641464880        0.000020358190647        0.000020557743205        0.001804349248676
        0.428142525791385        0.000020743867084        0.000020947135922        0.001827938418443
        0.430561410117890        0.000021060022658        0.000021266454342        0.001845169275825
        0.432980294444395        0.000021340599302        0.000021549716323        0.001859096825516
        0.435399178770900        0.000021547030990        0.000021758236089        0.001866446951879
        0.437818063097405        0.000021710949454        0.000021923695657        0.001870044910519
        0.440236947423910        0.000021796887028        0.000022010540981        0.001866926390616
        0.442655831750415        0.000021833557442        0.000022047504470        0.001859638904247
        0.445074716076920        0.000021789294146        0.000022002873454        0.001845580088808
        0.447493600403425        0.000021689326012        0.000021901858330        0.001826976688785
        0.449912484729930        0.000021506440335        0.000021717246927        0.001801634370067
        0.452331369056435        0.000021261866542        0.000021470207993        0.001771421800127
        0.454750253382940        0.000020933435421        0.000021138625285        0.001734591876341
        0.457169137709445        0.000020537925200        0.000020739169729        0.001692624238961
        0.459588022035950        0.000020058724518        0.000020255340403        0.001644250644192
        0.462006906362455        0.000019507781122        0.000019698927408        0.001590537647583
        0.464425790688960        0.000018874469446        0.000019059477288        0.001530719345779
        0.466844675015465        0.000018165608417        0.000018343598052        0.001465432457843
        0.469263559341970        0.000017376889990        0.000017547218688        0.001394428325310
        0.471682443668475        0.000016509794026        0.000016671552806        0.001317904669722
