#           time (fs)    |     mu_x (e.angstrom)   |     mu_y (e.angstrom)   |     mu_z (e.angstrom)   |
        0.000000000000000       -0.000000000000000       -0.000000000000000        0.000000000000000
        0.002418884326505        0.000000002371030        0.000000002365449       -0.000037182789017
        0.004837768653010       -0.000000014713084       -0.000000014676290        0.000115351083654
        0.007256652979515       -0.000000051395395       -0.000000051266423        0.000268596312049
        0.009675537306020       -0.000000157178801       -0.000000156786736        0.000616000777870
        0.012094421632525       -0.000000307712013       -0.000000306944032        0.000964653159273
        0.014513305959030       -0.000000577537817       -0.000000576098053        0.001508605095120
        0.016932190285535       -0.000000917562786       -0.000000915275247        0.002054157147693
        0.019351074612040       -0.000001425893312       -0.000001422339413        0.002792817223356
        0.021769958938545       -0.000002029642041       -0.000002024583684        0.003533230290274
        0.024188843265050       -0.000002847818414       -0.000002840720660        0.004461252705232
        0.026607727591555       -0.000003785868721       -0.000003776433545        0.005390970258083
        0.029026611918060       -0.000004979919178       -0.000004967505546        0.006499570134496
        0.031445496244565       -0.000006317007969       -0.000006301261068        0.007609588999210
        0.033864380571070       -0.000007945555817       -0.000007925742327        0.008886666605459
        0.036283264897575       -0.000009738501933       -0.000009714214168        0.010164665217031
        0.038702149224080       -0.000011850822347       -0.000011821251624        0.011594985254125
        0.041121033550585       -0.000014146608047       -0.000014111298293        0.013025507100144
        0.043539917877090       -0.000016780880130       -0.000016738966826        0.014590930365361
        0.045958802203595       -0.000019614937328       -0.000019565920884        0.016155619857700
        0.048377686530100       -0.000022796734064       -0.000022739715725        0.017835383722072
        0.050796570856605       -0.000026191477450       -0.000026125919187        0.019513270857319
        0.053215455183110       -0.000029932531466       -0.000029857523421        0.021284314171360
        0.055634339509615       -0.000033896175755       -0.000033811146634        0.023052143518843
        0.058053223836120       -0.000038193453210       -0.000038097506217        0.024889470808633
        0.060472108162625       -0.000042719146014       -0.000042611681801        0.026722069614525
        0.062890992489130       -0.000047554254653       -0.000047434414215        0.028599148760847
        0.065309876815635       -0.000052619550019       -0.000052486711228        0.030469828290550
        0.067728761142140       -0.000057958500459       -0.000057811867006        0.032359015308521
        0.070147645468645       -0.000063525191041       -0.000063364123444        0.034239998978601
        0.072566529795150       -0.000069318522981       -0.000069142312389        0.036112983043804
        0.074985414121655       -0.000075332841298       -0.000075140836620        0.037975854428504
        0.077404298448160       -0.000081516118592       -0.000081307722790        0.039804115935758
        0.079823182774665       -0.000087909309994       -0.000087683866667        0.041620279379338
        0.082242067101170       -0.000094403980610       -0.000094161028262        0.043375553577740
        0.084660951427675       -0.000101093242601       -0.000100832126627        0.045116699908105
        0.087079835754180       -0.000107807851563       -0.000107528268937        0.046771438534785
        0.089498720080685       -0.000114697626120       -0.000114398932221        0.048410008260091
        0.091917604407190       -0.000121529361749       -0.000121211433947        0.049937831597200
        0.094336488733695       -0.000128512959530       -0.000128175172697        0.051447467977115
        0.096755373060200       -0.000135349505807       -0.000134991938411        0.052823599882030
        0.099174257386705       -0.000142311033586       -0.000141933091017        0.054179584399254
        0.101593141713210       -0.000149032694436       -0.000148634675440        0.055381263105106
        0.104012026039715       -0.000155849250182       -0.000155430603296        0.056560926118741
        0.106430910366220       -0.000162331305065       -0.000161892566576        0.057567783967517
        0.108849794692725       -0.000168875398652       -0.000168416074472        0.058550883704333
        0.111268679019230       -0.000174990643150       -0.000174511521945        0.059345289452761
        0.113687563345735       -0.000181132795137       -0.000180633455846        0.060114352979918
        0.116106447672240       -0.000186754215421       -0.000186235710883        0.060681710901945
        0.118525331998745       -0.000192365681586       -0.000191827680539        0.061222331318152
        0.120944216325250       -0.000197369207800       -0.000196813035263        0.061551332008499
        0.123363100651755       -0.000202324773436       -0.000201750205366        0.061852416781107
        0.125781984978260       -0.000206592054279       -0.000206000691262        0.061935235331748
        0.128200869304765       -0.000210772839612       -0.000210164582292        0.061989201484444
        0.130619753631270       -0.000214193978747       -0.000213570701150        0.061821639548317
        0.133038637957775       -0.000217490195397       -0.000216851939648        0.061624552255991
        0.135457522284280       -0.000219966389888       -0.000219315294913        0.061206121416605
        0.137876406610785       -0.000222279988033       -0.000221616252746        0.060757773477389
        0.140295290937290       -0.000223726009811       -0.000223052022246        0.060091718295120
        0.142714175263795       -0.000224973156693       -0.000224289285526        0.059395648910102
        0.145133059590300       -0.000225319620045       -0.000224628478651        0.058488909000701
        0.147551943916805       -0.000225432952697       -0.000224735089311        0.057552361284017
        0.149970828243310       -0.000224628314014       -0.000223926535075        0.056415472786265
        0.152389712569815       -0.000223558912521       -0.000222853951666        0.055249290436214
        0.154808596896320       -0.000221571152921       -0.000220865968601        0.053896228227472
        0.157227481222825       -0.000219290185134       -0.000218585697608        0.052514692796420
        0.159646365549330       -0.000216108132084       -0.000215407402037        0.050962655800553
        0.162065249875835       -0.000212608126422       -0.000211912256825        0.049383266991170
        0.164484134202340       -0.000208242376959       -0.000207554472655        0.047652409876584
        0.166903018528845       -0.000203538086646       -0.000202859423972        0.045895612247874
        0.169321902855350       -0.000198021502241       -0.000197355164629        0.044008727718300
        0.171740787181855       -0.000192150331931       -0.000191497754229        0.042097588091045
        0.174159671508360       -0.000185538083157       -0.000184902255568        0.040079744812922
        0.176578555834865       -0.000178560057253       -0.000177942552939        0.038039585505118
        0.178997440161370       -0.000170929205256       -0.000170332844737        0.035917727478637
        0.181416324487875       -0.000162926466199       -0.000162352935827        0.033775721263033
        0.183835208814380       -0.000154375077191       -0.000153826948697        0.031578235115993
        0.186254093140885       -0.000145450911383       -0.000144929954916        0.029362968460667
        0.188672977467390       -0.000136096709900       -0.000135605168930        0.027119225713353
        0.191091861793895       -0.000126374108587       -0.000125913804241        0.024860237430681
        0.193510746120400       -0.000116352684892       -0.000115925455044        0.022600119235815
        0.195929630446905       -0.000105972457048       -0.000105580138588        0.020327422114825
        0.198348514773410       -0.000095435053581       -0.000095079006208        0.018080834310714
        0.200767399099915       -0.000084553517436       -0.000084235557331        0.015824427634290
        0.203186283426420       -0.000073664428435       -0.000073385371950        0.013620814154835
        0.205605167752925       -0.000062450717568       -0.000062212323640        0.011410195199795
        0.208024052079430       -0.000051384344756       -0.000051186831178        0.009278057957384
        0.210442936405935       -0.000040017373431       -0.000039862406498        0.007141740637559
        0.212861820732440       -0.000028954988766       -0.000028842144797        0.005108173931408
        0.215280705058945       -0.000017620129248       -0.000017550948784        0.003073222668957
        0.217699589385450       -0.000006746402929       -0.000006719792249        0.001163469971837
        0.220118473711955        0.000004368065298        0.000004350721208       -0.000744943330012
        0.222537358038460        0.000014868707100        0.000014809184583       -0.002507902687675
        0.224956242364965        0.000025575310176        0.000025472405408       -0.004266911044343
        0.227375126691470        0.000035522428362        0.000035378595723       -0.005862738237894
        0.229794011017975        0.000045638301985        0.000045452539532       -0.007452154307080
        0.232212895344480        0.000054859215066        0.000054634632821       -0.008863483960775
        0.234631779670985        0.000064209924932        0.000063945738182       -0.010266130642502
        0.237050663997490        0.000072543431397        0.000072243365487       -0.011478854586169
        0.239469548323995        0.000080966733392        0.000080630230548       -0.012680845767005
        0.241888432650500        0.000088266709373        0.000087898052466       -0.013684342644776
        0.244307316977005        0.000095616172083        0.000095215034291       -0.014675309171780
        0.246726201303510        0.000101754968374        0.000101326115794       -0.015462615835988
        0.249145085630015        0.000107903381328        0.000107446716545       -0.016235872712666
        0.251563969956520        0.000112774946015        0.000112295629012       -0.016803794305152
        0.253982854283025        0.000117617439525        0.000117115595491       -0.017356446081815
        0.256401738609530        0.000121140096168        0.000120621176486       -0.017705602731972
        0.258820622936035        0.000124596902566        0.000124061243407       -0.018038585099448
        0.261239507262540        0.000126715719051        0.000126168949824       -0.018173394235393
        0.263658391589045        0.000128734510580        0.000128177162531       -0.018291450905895
        0.266077275915550        0.000129423200353        0.000128860959177       -0.018220045263493
        0.268496160242055        0.000129980945806        0.000129414518231       -0.018131640316824
        0.270915044568560        0.000129243251063        0.000128678251698       -0.017865722821931
        0.273333928895065        0.000128347541407        0.000127784829799       -0.017582889789893
        0.275752813221570        0.000126218056861        0.000125663046369       -0.017137527562950
        0.278171697548075        0.000123907859379        0.000123361537246       -0.016675657601022
        0.280590581874580        0.000120452265274        0.000119919713529       -0.016069018371724
        0.283009466201085        0.000116798076000        0.000116280382595       -0.015446590906137
        0.285428350527590        0.000112112759896        0.000111614548379       -0.014699626111215
        0.287847234854095        0.000107216135246        0.000106738565964       -0.013937886333823
        0.290266119180600        0.000101427193618        0.000100974310165       -0.013073966087818
        0.292685003507105        0.000095419653781        0.000094992659765       -0.012196554586018
        0.295103887833610        0.000088681276367        0.000088283522249       -0.011241060544978
        0.297522772160115        0.000081722585128        0.000081355288262       -0.010273601178975
        0.299941656486620        0.000074214837118        0.000073880552389       -0.009253484050948
        0.302360540813125        0.000066490675031        0.000066190604064       -0.008223136921041
        0.304779425139630        0.000058416704274        0.000058152516894       -0.007166446000098
        0.307198309466135        0.000050135764361        0.000049908617421       -0.006101432962512
        0.309617193792640        0.000041718472627        0.000041529076367       -0.005036825565711
        0.312036078119145        0.000033109019699        0.000032958457966       -0.003965936251331
        0.314454962445650        0.000024587248437        0.000024475214091       -0.002922175312367
        0.316873846772155        0.000015893194572        0.000015820671410       -0.001874261968795
        0.319292731098660        0.000007517486291        0.000007483110218       -0.000879710281474
        0.321711615425165       -0.000001005954264       -0.000001001324942        0.000116820011075
        0.324130499751670       -0.000008977948096       -0.000008936754559        0.001034700306500
        0.326549384078175       -0.000017068951582       -0.000016990484435        0.001952387405444
        0.328968268404680       -0.000024377336520       -0.000024265113775        0.002767521542259
        0.331387152731185       -0.000031772428262       -0.000031625910382        0.003580339412864
        0.333806037057690       -0.000038160119830       -0.000037983880395        0.004268504558530
        0.336224921384195       -0.000044599309887       -0.000044392997225        0.004952325455689
        0.338643805710700       -0.000049817180674       -0.000049586381377        0.005491585074057
        0.341062690037205       -0.000055049181929       -0.000054793746784        0.006024612687674
        0.343481574363710       -0.000058861205800       -0.000058587670619        0.006395713128452
        0.345900458690215       -0.000062648635844       -0.000062357064602        0.006758877123838
        0.348319343016720       -0.000064836929771       -0.000064534722929        0.006945599462021
        0.350738227343225       -0.000066961395685       -0.000066648836853        0.007122904459163
        0.353157111669730       -0.000067331059123       -0.000067016308904        0.007112365328591
        0.355575995996235       -0.000067598023947       -0.000067281587411        0.007091188101331
        0.357994880322740       -0.000065981677010       -0.000065672351735        0.006874084101977
        0.360413764649245       -0.000064225008325       -0.000063923517790        0.006645413629291
        0.362832648975750       -0.000060486933350       -0.000060202571985        0.006216204824624
        0.365251533302255       -0.000056573038028       -0.000056306739658        0.005774820778244
        0.367670417628760       -0.000050612834387       -0.000050374235338        0.005131849822201
        0.370089301955265       -0.000044444289175       -0.000044234520552        0.004476436112278
        0.372508186281770       -0.000036199958339       -0.000036028831108        0.003621980637984
        0.374927070608275       -0.000027718553472       -0.000027587378100        0.002755171744083
        0.377345954934780       -0.000017168940345       -0.000017087525790        0.001695428789755
        0.379764839261285       -0.000006358062684       -0.000006327876309        0.000623787758857
        0.382183723587790        0.000006475410162        0.000006444744219       -0.000631209819762
        0.384602607914295        0.000019589116952        0.000019496000997       -0.001897281643753
        0.387021492240800        0.000034641473346        0.000034476653553       -0.003333815641790
        0.389440376567305        0.000049987221609        0.000049749000044       -0.004780235902788
        0.391859260893810        0.000067149751962        0.000066829429609       -0.006381117811689
        0.394278145220315        0.000084612532159        0.000084208343793       -0.007990345011200
        0.396697029546820        0.000103733433080        0.000103237414254       -0.009735192200037
        0.399115913873325        0.000123154766755        0.000122565120004       -0.011486508584229
        0.401534798199830        0.000144040608230        0.000143350274957       -0.013352077093077
        0.403953682526335        0.000165220137918        0.000164427324801       -0.015221927908359
        0.406372566852840        0.000187638150443        0.000186736863902       -0.017182496322095
        0.408791451179345        0.000210336056703        0.000209324544494       -0.019144879786635
        0.411210335505850        0.000234017214887        0.000232890692094       -0.021172677742954
        0.413629219832355        0.000257957434581        0.000256714226776       -0.023199579173427
        0.416048104158860        0.000282600297979        0.000281236953914       -0.025265253254257
        0.418466988485365        0.000307474502022        0.000305989460963       -0.027327115991008
        0.420885872811870        0.000332749758612        0.000331141006603       -0.029400225066303
        0.423304757138375        0.000358222032051        0.000356488156476       -0.031466450170276
        0.425723641464880        0.000383777675196        0.000381918179337       -0.033515981719535
        0.428142525791385        0.000409489827818        0.000407503479665       -0.035555447882592
        0.430561410117890        0.000434956883978        0.000432844758514       -0.037550346421951
        0.432980294444395        0.000460534306123        0.000458295382119       -0.039531941147928
        0.435399178770900        0.000485533018327        0.000483169970145       -0.041441639646279
        0.437818063097405        0.000510590984386        0.000508103029152       -0.043334792530028
        0.440236947423910        0.000534737345763        0.000532128757343       -0.045129737610633
        0.442655831750415        0.000558887657234        0.000556157915881       -0.046904946470478
        0.445074716076920        0.000581800179980        0.000578955131359       -0.048557108266668
        0.447493600403425        0.000604658031198        0.000601697440517       -0.050186448973617
        0.449912484729930        0.000625964629417        0.000622895858826       -0.051669806737434
        0.452331369056435        0.000647155572332        0.000643978690759       -0.053127417831019
        0.454750253382940        0.000666500432411        0.000663224236225       -0.054418412778515
        0.457169137709445        0.000685667312243        0.000682292189681       -0.055680946360566
        0.459588022035950        0.000702717621895        0.000699253695398       -0.056758893770945
        0.462006906362455        0.000719527353282        0.000715975342657       -0.057805924718626
        0.464425790688960        0.000733979760293        0.000730350981456       -0.058653377978026
        0.466844675015465        0.000748129813715        0.000744425326782       -0.059467764207511
        0.469263559341970        0.000759716487725        0.000755948646782       -0.060070824291102
        0.471682443668475        0.000770940958658        0.000767111169093       -0.060639011622172
