#           time (fs)       | force (atom_1) (H/b)   |  force (atom_2) (H/b)  |           ...          |  force (atom_N) (H/b)  |
        0.000000000000000       -0.000000000000000       -0.000000000000000       -0.001977038000788       -0.000000000000000       -0.000000000000000        0.001977038000788
        0.120944216325250       -0.000006790894189        0.000001448962692       -0.003053346898908        0.000006790894189       -0.000001448962692        0.003053346901472
        0.241888432650500       -0.000017321513070        0.000003695865269       -0.004185923693679        0.000017321513070       -0.000003695865269        0.004185923685671
        0.362832648975750       -0.000031937016629        0.000006814353101       -0.005289466006256        0.000031937016629       -0.000006814353101        0.005289466011746
        0.483776865301000       -0.000048951787930        0.000010444767761       -0.005881959058293        0.000048951787930       -0.000010444767761        0.005881959041878
        0.604721081626250       -0.000068327885627        0.000014579016557       -0.006214408823047        0.000068327885627       -0.000014579016557        0.006214408819873
        0.725665297951500       -0.000089890484141        0.000019179795966       -0.006422730262535        0.000089890484141       -0.000019179795966        0.006422730258305
        0.846609514276750       -0.000112214470353        0.000023943030475       -0.006804099514752        0.000112214470353       -0.000023943030475        0.006804099516356
        0.967553730602000       -0.000138861810991        0.000029628734078       -0.007636566809204        0.000138861810991       -0.000029628734078        0.007636566813836
        1.088497946927250       -0.000162147250957        0.000034597113226       -0.008156782027070        0.000162147250957       -0.000034597113226        0.008156782040039
        1.209442163252500       -0.000189978811163        0.000040535489481       -0.008860336882835        0.000189978811163       -0.000040535489481        0.008860336893573
        1.330386379577750       -0.000209095121039        0.000044614307610       -0.008557350949096        0.000209095121039       -0.000044614307610        0.008557350962123
        1.451330595903000       -0.000230736107903        0.000049231813124       -0.008437008075957        0.000230736107903       -0.000049231813124        0.008437008083904
        1.572274812228250       -0.000246641609655        0.000052625545565       -0.008004552413988        0.000246641609655       -0.000052625545565        0.008004552416137
        1.693219028553500       -0.000259562027045        0.000055382355177       -0.007849922778932        0.000259562027045       -0.000055382355177        0.007849922774950
        1.814163244878750       -0.000276157398340        0.000058923283480       -0.008204237082826        0.000276157398340       -0.000058923283480        0.008204237073066
        1.935107461204000       -0.000276943052988        0.000059090918744       -0.007861779680224        0.000276943052988       -0.000059090918744        0.007861779669322
        2.056051677529250       -0.000286465252236        0.000061122655403       -0.007954265614936        0.000286465252236       -0.000061122655403        0.007954265603175
        2.176995893854500       -0.000272014966366        0.000058039419598       -0.006770918839629        0.000272014966366       -0.000058039419598        0.006770918833858
        2.297940110179750       -0.000264933610774        0.000056528481814       -0.006090840625254        0.000264933610774       -0.000056528481814        0.006090840621325
        2.418884326505000       -0.000244659250630        0.000052202572231       -0.005150521582166        0.000244659250630       -0.000052202572231        0.005150521582094
        2.539828542830250       -0.000220948748091        0.000047143499534       -0.004529222956536        0.000220948748091       -0.000047143499534        0.004529222961068
        2.660772759155500       -0.000201961505269        0.000043092219726       -0.004455109198339        0.000201961505269       -0.000043092219726        0.004455109202806
        2.781716975480750       -0.000159653266444        0.000034064974769       -0.003554364575221        0.000159653266444       -0.000034064974769        0.003554364582526
        2.902661191806000       -0.000131141506240        0.000027981463492       -0.003114206609725        0.000131141506240       -0.000027981463492        0.003114206608296
        3.023605408131250       -0.000072252556292        0.000015416418402       -0.001530941452977        0.000072252556292       -0.000015416418402        0.001530941452472
        3.144549624456500       -0.000026741132247        0.000005705714497       -0.000549767936649        0.000026741132247       -0.000005705714497        0.000549767936097
        3.265493840781750        0.000030905765847       -0.000006594316048        0.000451170807845       -0.000030905765847        0.000006594316048       -0.000451170807406
        3.386438057107000        0.000090048861957       -0.000019213588970        0.001166655496095       -0.000090048861957        0.000019213588970       -0.001166655498366
        3.507382273432250        0.000138455969510       -0.000029542139240        0.001313498070051       -0.000138455969510        0.000029542139240       -0.001313498064839
        3.628326489757500        0.000213110941157       -0.000045471157012        0.002345464732487       -0.000213110941157        0.000045471157012       -0.002345464731213
        3.749270706082750        0.000265738724985       -0.000056700268022        0.002907975771680       -0.000265738724985        0.000056700268022       -0.002907975761712
        3.870214922408000        0.000348137228418       -0.000074281510835        0.004406828637470       -0.000348137228418        0.000074281510835       -0.004406828631733
        3.991159138733250        0.000410191239771       -0.000087521880964        0.005239196645591       -0.000410191239771        0.000087521880964       -0.005239196644248
        4.112103355058500        0.000475137415865       -0.000101379348028        0.005839302138451       -0.000475137415865        0.000101379348028       -0.005839302141298
        4.233047571383750        0.000542610280956       -0.000115775931100        0.006298866724149       -0.000542610280956        0.000115775931100       -0.006298866728006
        4.353991787709000        0.000585653274906       -0.000124959949025        0.006117200352589       -0.000585653274906        0.000124959949025       -0.006117200362167
        4.474936004034250        0.000660309009437       -0.000140889129424        0.006959593827051       -0.000660309009437        0.000140889129424       -0.006959593838311
        4.595880220359500        0.000700986093710       -0.000149568337813        0.007255859743939       -0.000700986093710        0.000149568337813       -0.007255859753720
        4.716824436684750        0.000767352384930       -0.000163728812335        0.008293301002279       -0.000767352384930        0.000163728812335       -0.008293301008652
        4.837768653010000        0.000810199155136       -0.000172870962291        0.008663350296107       -0.000810199155136        0.000172870962291       -0.008663350296252
        4.958712869335250        0.000840628531363       -0.000179363631643        0.008574217008053       -0.000840628531363        0.000179363631643       -0.008574217002951
        5.079657085660500        0.000880417990737       -0.000187853448271        0.008568316712386       -0.000880417990737        0.000187853448271       -0.008568316702575
        5.200601301985750        0.000881883477199       -0.000188166137018        0.007924380546430       -0.000881883477199        0.000188166137018       -0.007924380534615
        5.321545518311000        0.000917472827006       -0.000195759781791        0.008334960112065       -0.000917472827006        0.000195759781791       -0.008334960100989
        5.442489734636251        0.000915708086701       -0.000195383242754        0.008265708071081       -0.000915708086701        0.000195383242754       -0.008265708062170
        5.563433950961501        0.000926553732538       -0.000197697360874        0.008610244265484       -0.000926553732538        0.000197697360874       -0.008610244262197
        5.684378167286750        0.000920056537793       -0.000196311065187        0.008419316884110       -0.000920056537793        0.000196311065187       -0.008419316885871
        5.805322383612000        0.000885462418097       -0.000188929770819        0.007629887064546       -0.000885462418097        0.000188929770819       -0.007629887073005
        5.926266599937250        0.000865588125483       -0.000184689221971        0.007068621538966       -0.000865588125483        0.000184689221971       -0.007068621546499
        6.047210816262500        0.000806656417759       -0.000172115054234        0.006093605043614       -0.000806656417759        0.000172115054234       -0.006093605060676
        6.168155032587750        0.000773378012289       -0.000165014491183        0.005975014910940       -0.000773378012289        0.000165014491183       -0.005975014912593
        6.289099248913001        0.000714402923237       -0.000152431065144        0.005605323494485       -0.000714402923237        0.000152431065144       -0.005605323502435
        6.410043465238251        0.000649875549170       -0.000138662957494        0.005278831242706       -0.000649875549170        0.000138662957494       -0.005278831243787
        6.530987681563500        0.000580233350101       -0.000123803507280        0.004587138631213       -0.000580233350101        0.000123803507280       -0.004587138628605
        6.651931897888750        0.000474589303820       -0.000101262397696        0.003307484155796       -0.000474589303820        0.000101262397696       -0.003307484142954
        6.772876114214000        0.000389313534320       -0.000083067236646        0.002362770389424       -0.000389313534320        0.000083067236646       -0.002362770389344
        6.893820330539250        0.000272358319017       -0.000058112680109        0.001253245482964       -0.000272358319017        0.000058112680109       -0.001253245465126
        7.014764546864500        0.000178345800654       -0.000038053372313        0.000860128405010       -0.000178345800654        0.000038053372313       -0.000860128409413
        7.135708763189751        0.000068829107141       -0.000014685961646        0.000310266340832       -0.000068829107141        0.000014685961646       -0.000310266336104
        7.256652979515001       -0.000050338726882        0.000010740698718       -0.000361442722096        0.000050338726882       -0.000010740698718        0.000361442722169
        7.377597195840250       -0.000164372864297        0.000035071989540       -0.001284336225175        0.000164372864297       -0.000035071989540        0.001284336223354
        7.498541412165500       -0.000312219808678        0.000066617866904       -0.002711895076247        0.000312219808678       -0.000066617866904        0.002711895063749
        7.619485628490750       -0.000424159948080        0.000090502364325       -0.003572122933783        0.000424159948080       -0.000090502364325        0.003572122937403
        7.740429844816000       -0.000564644400143        0.000120477318170       -0.004566114993016        0.000564644400143       -0.000120477318170        0.004566114982389
        7.861374061141250       -0.000665741294321        0.000142048209266       -0.004746312295310        0.000665741294321       -0.000142048209266        0.004746312298834
        7.982318277466501       -0.000780140411721        0.000166457374549       -0.005199811725339        0.000780140411721       -0.000166457374549        0.005199811723780
        8.103262493791750       -0.000894908114724        0.000190945185235       -0.005781282260589        0.000894908114724       -0.000190945185235        0.005781282261061
        8.224206710117000       -0.000987892341674        0.000210785088594       -0.006447313012992        0.000987892341674       -0.000210785088594        0.006447313014275
        8.345150926442249       -0.001116374764740        0.000238199187559       -0.007639465411768        0.001116374764740       -0.000238199187559        0.007639465417179
        8.466095142767500       -0.001173290584787        0.000250343229922       -0.007848920547952        0.001173290584787       -0.000250343229922        0.007848920547546
        8.587039359092751       -0.001271371601739        0.000271270627292       -0.008402301527669        0.001271371601739       -0.000271270627292        0.008402301530010
        8.707983575418000       -0.001296234040572        0.000276575488376       -0.007935340638199        0.001296234040572       -0.000276575488376        0.007935340638379
        8.828927791743251       -0.001344170428809        0.000286803602707       -0.007951164310134        0.001344170428809       -0.000286803602707        0.007951164310425
        8.949872008068500       -0.001376051740592        0.000293606069743       -0.008082924945684        0.001376051740592       -0.000293606069743        0.008082924945207
        9.070816224393750       -0.001376101388031        0.000293616663527       -0.008150251645705        0.001376101388031       -0.000293616663527        0.008150251644996
        9.191760440718999       -0.001409390217961        0.000300719450408       -0.008733409637262        0.001409390217961       -0.000300719450408        0.008733409635478
        9.312704657044250       -0.001350677415050        0.000288191989363       -0.008134487971066        0.001350677415050       -0.000288191989363        0.008134487970077
        9.433648873369501       -0.001338367087512        0.000285565352914       -0.007945313948019        0.001338367087512       -0.000285565352914        0.007945313944679
        9.554593089694750       -0.001242328456742        0.000265073736138       -0.006848346339036        0.001242328456742       -0.000265073736138        0.006848346337799
        9.675537306020001       -0.001176203903167        0.000250964840732       -0.006297433927654        0.001176203903167       -0.000250964840732        0.006297433927632
        9.796481522345250       -0.001088872424243        0.000232331056236       -0.005942562691356        0.001088872424243       -0.000232331056236        0.005942562692928
        9.917425738670500       -0.000976969092833        0.000208454412416       -0.005500225043390        0.000976969092833       -0.000208454412416        0.005500225039517
       10.038369954995749       -0.000887435032788        0.000189350666006       -0.005388994233152        0.000887435032788       -0.000189350666006        0.005388994241462
       10.159314171321000       -0.000721729355335        0.000153994297655       -0.004279369662832        0.000721729355335       -0.000153994297655        0.004279369659901
       10.280258387646251       -0.000594905799577        0.000126934148175       -0.003438578552724        0.000594905799577       -0.000126934148175        0.003438578560404
       10.401202603971500       -0.000406148482696        0.000086659285705       -0.002073861362517        0.000406148482696       -0.000086659285705        0.002073861363264
       10.522146820296751       -0.000252132274196        0.000053797081681       -0.001243370871798        0.000252132274196       -0.000053797081681        0.001243370871910
       10.643091036622000       -0.000087785521286        0.000018730664846       -0.000715564243360        0.000087785521286       -0.000018730664846        0.000715564239888
       10.764035252947250        0.000088472895618       -0.000018877325103       -0.000104786315180       -0.000088472895618        0.000018877325103        0.000104786324016
       10.884979469272501        0.000240655990879       -0.000051348401089        0.000317861651420       -0.000240655990879        0.000051348401089       -0.000317861663420
       11.005923685597750        0.000451729715368       -0.000096384881255        0.001568753170406       -0.000451729715368        0.000096384881255       -0.001568753165991
       11.126867901923001        0.000614686506120       -0.000131154723089        0.002539256469109       -0.000614686506120        0.000131154723089       -0.002539256474568
       11.247812118248250        0.000820719317783       -0.000175115631884        0.003761122145931       -0.000820719317783        0.000175115631884       -0.003761122146113
       11.368756334573501        0.000980626627202       -0.000209234811346        0.004415232076649       -0.000980626627202        0.000209234811346       -0.004415232078087
       11.489700550898750        0.001132861582319       -0.000241716951781        0.004677203984887       -0.001132861582319        0.000241716951781       -0.004677203982459
       11.610644767224001        0.001297785123070       -0.000276906437269        0.005170547176494       -0.001297785123070        0.000276906437269       -0.005170547185397
       11.731588983549251        0.001415109526832       -0.000301939766981        0.005406075897973       -0.001415109526832        0.000301939766981       -0.005406075892484
       11.852533199874500        0.001593743911009       -0.000340054714062        0.006512022785836       -0.001593743911009        0.000340054714062       -0.006512022788867
       11.973477416199751        0.001700908582797       -0.000362920276946        0.007137693258395       -0.001700908582797        0.000362920276946       -0.007137693258122
       12.094421632525000        0.001835744632331       -0.000391690040028        0.007856284593809       -0.001835744632331        0.000391690040028       -0.007856284593841
       12.215365848850251        0.001927328959630       -0.000411231249067        0.008063166005210       -0.001927328959630        0.000411231249067       -0.008063166002816
       12.336310065175500        0.001975985634495       -0.000421613049095        0.007719744562129       -0.001975985634495        0.000421613049095       -0.007719744560125
       12.457254281500751        0.002066576715188       -0.000440942330547        0.007951574598830       -0.002066576715188        0.000440942330547       -0.007951574594472
       12.578198497826001        0.002069764936461       -0.000441622596555        0.007713901470220       -0.002069764936461        0.000441622596555       -0.007713901467179
       12.699142714151250        0.002149820882804       -0.000458704011853        0.008453736789254       -0.002149820882804        0.000458704011853       -0.008453736786826
       12.820086930476501        0.002141925435926       -0.000457019373188        0.008537583595016       -0.002141925435926        0.000457019373188       -0.008537583593818
       12.941031146801750        0.002141282277151       -0.000456882142596        0.008544398486779       -0.002141282277151        0.000456882142596       -0.008544398487277
       13.061975363127001        0.002119365573551       -0.000452205808861        0.008226467108545       -0.002119365573551        0.000452205808861       -0.008226467109409
       13.182919579452250        0.002020600547642       -0.000431132465713        0.007246661206603       -0.002020600547642        0.000431132465713       -0.007246661208448
       13.303863795777501        0.001993248017123       -0.000425296297672        0.007122714180582       -0.001993248017123        0.000425296297672       -0.007122714183188
       13.424808012102751        0.001862129415291       -0.000397319720362        0.006471826935460       -0.001862129415291        0.000397319720362       -0.006471826937029
