#           time (fs)    |     mu_x (e.angstrom)   |     mu_y (e.angstrom)   |     mu_z (e.angstrom)   |
        0.000000000000000       -0.000000000000000       -0.000000000000000        0.000000000000000
        0.002418884326505       -0.000000004616540       -0.000000000502969        0.000092473425942
        0.004837768653010       -0.000000094173323       -0.000000010259713        0.000943170742491
        0.007256652979515       -0.000000268456589       -0.000000029246545        0.001792411559742
        0.009675537306020       -0.000000676453852       -0.000000073695662        0.003387318823499
        0.012094421632525       -0.000001242918787       -0.000000135407465        0.004979014522824
        0.014513305959030       -0.000002184202021       -0.000000237955384        0.007291306586866
        0.016932190285535       -0.000003354580286       -0.000000365458877        0.009598361063097
        0.019351074612040       -0.000005028347175       -0.000000547808012        0.012588842376819
        0.021769958938545       -0.000006997417361       -0.000000762324258        0.015571826553691
        0.024188843265050       -0.000009581353619       -0.000001043835404        0.019189582058284
        0.026607727591555       -0.000012521156059       -0.000001364111233        0.022797390469884
        0.029026611918060       -0.000016166069487       -0.000001761221091        0.026980631668959
        0.031445496244565       -0.000020220640529       -0.000002202957995        0.031151332945870
        0.033864380571070       -0.000025045719074       -0.000002728665533        0.035828423845863
        0.036283264897575       -0.000030326468886       -0.000003304019480        0.040490289664866
        0.038702149224080       -0.000036415275327       -0.000003967453236        0.045580934208548
        0.041121033550585       -0.000042997119890       -0.000004684617212        0.050653628276552
        0.043539917877090       -0.000050394420344       -0.000005490693798        0.056070198274042
        0.045958802203595       -0.000058312762502       -0.000006353573026        0.061466104379546
        0.048377686530100       -0.000067022268370       -0.000007302755040        0.067115084809273
        0.050796570856605       -0.000076270905048       -0.000008310742736        0.072740750915554
        0.053215455183110       -0.000086253988736       -0.000009398902071        0.078524277835408
        0.055634339509615       -0.000096784001893       -0.000010546761405        0.084281951615575
        0.058053223836120       -0.000107959425984       -0.000011765151662        0.090099416785355
        0.060472108162625       -0.000119679094041       -0.000013043007287        0.095888646899633
        0.062890992489130       -0.000131923771911       -0.000014378346628        0.101638342548510
        0.065309876815635       -0.000144699516484       -0.000015771786802        0.107357619315725
        0.067728761142140       -0.000157850300045       -0.000017206450257        0.112938396261462
        0.070147645468645       -0.000171508660421       -0.000018696738263        0.118486805148877
        0.072566529795150       -0.000185365128131       -0.000020209056174        0.123799717653164
        0.074985414121655       -0.000199695733208       -0.000021773447434        0.129078579168553
        0.077404298448160       -0.000214023929174       -0.000023338104527        0.134028490459243
        0.079823182774665       -0.000228783414260       -0.000024950263609        0.138942960544894
        0.082242067101170       -0.000243320467550       -0.000026538791045        0.143440083818924
        0.084660951427675       -0.000258237261660       -0.000028169300674        0.147900689692211
        0.087079835754180       -0.000272696794394       -0.000029750651478        0.151862040606129
        0.089498720080685       -0.000287476683260       -0.000031367603703        0.155786128144438
        0.091917604407190       -0.000301554897058       -0.000032908800203        0.159136866282642
        0.094336488733695       -0.000315887248215       -0.000034478458096        0.162449936496676
        0.096755373060200       -0.000329269561713       -0.000035945298391        0.165124575065916
        0.099174257386705       -0.000342834081463       -0.000037432815109        0.167761488933974
        0.101593141713210       -0.000355202177265       -0.000038790624245        0.169704953955057
        0.104012026039715       -0.000367676055355       -0.000040160804942        0.171610986892838
        0.106430910366220       -0.000378715183484       -0.000041375215407        0.172779509435867
        0.108849794692725       -0.000389780470533       -0.000042593306403        0.173911238941754
        0.111268679019230       -0.000399186847474       -0.000043631051706        0.174273066466098
        0.113687563345735       -0.000408537902816       -0.000044663540570        0.174599078996364
        0.116106447672240       -0.000416026041011       -0.000045493245198        0.174134994591937
        0.118525331998745       -0.000423376885033       -0.000046308654898        0.173636400463068
        0.120944216325250       -0.000428686687294       -0.000046901603751        0.172340041718834
        0.123363100651755       -0.000433778092675       -0.000047471263903        0.171010789775710
        0.125781984978260       -0.000436681549544       -0.000047802134447        0.168888762089334
        0.128200869304765       -0.000439287710051       -0.000048100912865        0.166735748979994
        0.130619753631270       -0.000439595045596       -0.000048148453749        0.163807531325394
        0.133038637957775       -0.000439529669231       -0.000048155432044        0.160850503438701
        0.135457522284280       -0.000437094791888       -0.000047903072745        0.157148147874550
        0.137876406610785       -0.000434216476895       -0.000047602150559        0.153419397272635
        0.140295290937290       -0.000428941606469       -0.000047038527748        0.148987026748038
        0.142714175263795       -0.000423158373682       -0.000046418941433        0.144530885703021
        0.145133059590300       -0.000414997733007       -0.000045538329223        0.139423997937510
        0.147551943916805       -0.000406270605783       -0.000044595072219        0.134296139902237
        0.149970828243310       -0.000395233085347       -0.000043397705165        0.128580728227158
        0.152389712569815       -0.000383578628334       -0.000042131839124        0.122847286174652
        0.154808596896320       -0.000369729353792       -0.000040624118840        0.116598791166523
        0.157227481222825       -0.000355221103464       -0.000039042966540        0.110335307168530
        0.159646365549330       -0.000338681858746       -0.000037237544964        0.103637415631838
        0.162065249875835       -0.000321450601402       -0.000035354758263        0.096927638265113
        0.164484134202340       -0.000302399083620       -0.000033270492958        0.089870948588974
        0.166903018528845       -0.000282631959823       -0.000031105991448        0.082805497217333
        0.169321902855350       -0.000261299865643       -0.000028767770829        0.075486072301330
        0.171740787181855       -0.000239238303353       -0.000026347549311        0.068160989447402
        0.174159671508360       -0.000215908269626       -0.000023785988244        0.060678820237232
        0.176578555834865       -0.000191844771106       -0.000021141793791        0.053194035101541
        0.178997440161370       -0.000166846214793       -0.000018392802612        0.045651439271229
        0.181416324487875       -0.000141120044312       -0.000015561684573        0.038109166953836
        0.183835208814380       -0.000114823967792       -0.000012665917213        0.030609148398536
        0.186254093140885       -0.000087815807970       -0.000009689656150        0.023112250509234
        0.188672977467390       -0.000060628655434       -0.000006691845558        0.015756846054362
        0.191091861793895       -0.000032754319442       -0.000003616269678        0.008407179142589
        0.193510746120400       -0.000005110987994       -0.000000564461226        0.001295819216018
        0.195929630446905        0.000023185707431        0.000002561338703       -0.005807402206220
        0.198348514773410        0.000050829582275        0.000005616642873       -0.012579492265520
        0.200767399099915        0.000079084662039        0.000008741186795       -0.019341291411561
        0.203186283426420        0.000106261012666        0.000011747957421       -0.025684623234703
        0.205605167752925        0.000133998771790        0.000014818322072       -0.032015789256020
        0.208024052079430        0.000160235850856        0.000017723989515       -0.037848051275882
        0.210442936405935        0.000186977719230        0.000020686810074       -0.043666574766753
        0.212861820732440        0.000211809142576        0.000023439289693       -0.048913956133223
        0.215280705058945        0.000237082829306        0.000026241798280       -0.054146348093036
        0.217699589385450        0.000260056746520        0.000028790534799       -0.058744724610274
        0.220118473711955        0.000283405499710        0.000031381615916       -0.063327196867317
        0.222537358038460        0.000304093724522        0.000033678626319       -0.067223159114292
        0.224956242364965        0.000325085537443        0.000036009868562       -0.071102646474085
        0.227375126691470        0.000343092467824        0.000038010762668       -0.074254352881384
        0.229794011017975        0.000361329060103        0.000040037485728       -0.077389359910543
        0.232212895344480        0.000376300218325        0.000041702443622       -0.079767200524364
        0.234631779670985        0.000391425621225        0.000043384679663       -0.082128458870641
        0.237050663997490        0.000403055647299        0.000044679365671       -0.083715518781986
        0.239469548323995        0.000414764225430        0.000045982774734       -0.085286444201132
        0.241888432650500        0.000422804163347        0.000046879168534       -0.086078759084399
        0.244307316977005        0.000430847911287        0.000047775868601       -0.086855700821148
        0.246726201303510        0.000435111636305        0.000048252995414       -0.086862300631319
        0.249145085630015        0.000439306597616        0.000048722289154       -0.086854579402273
        0.251563969956520        0.000439676244447        0.000048766832680       -0.086097319937220
        0.253982854283025        0.000439907912387        0.000048795814674       -0.085327054400535
        0.256401738609530        0.000436338178399        0.000048402598508       -0.083840240056613
        0.258820622936035        0.000432565752158        0.000047986628837       -0.082341965240173
        0.261239507262540        0.000425086966495        0.000047158954430       -0.080171769791277
        0.263658391589045        0.000417346353830        0.000046301986890       -0.077991854406469
        0.266077275915550        0.000406066222458        0.000045051818726       -0.075195549943581
        0.268496160242055        0.000394471699019        0.000043766574510       -0.072391422764906
        0.270915044568560        0.000379575656847        0.000042114565885       -0.069036429982310
        0.273333928895065        0.000364320113955        0.000040422546332       -0.065675628466870
        0.275752813221570        0.000346070238185        0.000038397901983       -0.061838404225570
        0.278171697548075        0.000327423974178        0.000036329236827       -0.057997461239859
        0.280590581874580        0.000306156437482        0.000033969411573       -0.053762241747715
        0.283009466201085        0.000284464472611        0.000031562542046       -0.049525428637159
        0.285428350527590        0.000260585540469        0.000028912777531       -0.044982848644202
        0.287847234854095        0.000236263461440        0.000026213976577       -0.040440794913354
        0.290266119180600        0.000210244064506        0.000023326681078       -0.035686405028418
        0.292685003507105        0.000183772431805        0.000020389415866       -0.030934616598313
        0.295103887833610        0.000156141371258        0.000017323394992       -0.026067322198151
        0.297522772160115        0.000128058749924        0.000014207539708       -0.021204621581232
        0.299941656486620        0.000099394620982        0.000011027088546       -0.016325067819473
        0.302360540813125        0.000070289323175        0.000007797998274       -0.011451980614232
        0.304779425139630        0.000041211268799        0.000004571868175       -0.006660908759464
        0.307198309466135        0.000011711923840        0.000001299327284       -0.001878021627223
        0.309617193792640       -0.000017130643264       -0.000001900417022        0.002725377622179
        0.312036078119145       -0.000046365549305       -0.000005143356011        0.007319061871421
        0.314454962445650       -0.000074304093620       -0.000008242570948        0.011638772329211
        0.316873846772155       -0.000102597541746       -0.000011380839699        0.015947456748690
        0.319292731098660       -0.000128956235389       -0.000014304608926        0.019892212358136
        0.321711615425165       -0.000155624671094       -0.000017262446360        0.023824879323890
        0.324130499751670       -0.000179732702347       -0.000019936436373        0.027309666371807
        0.326549384078175       -0.000204098496874       -0.000022638760121        0.030781577311338
        0.328968268404680       -0.000225302634744       -0.000024990601848        0.033729038999302
        0.331387152731185       -0.000246706784022       -0.000027364404157        0.036663136035303
        0.333806037057690       -0.000264383964202       -0.000029325075754        0.039004856368011
        0.336224921384195       -0.000282198787197       -0.000031300818706        0.041333042726350
        0.338643805710700       -0.000295768476835       -0.000032806003973        0.043010688258174
        0.341062690037205       -0.000309410067739       -0.000034318988103        0.044674965893584
        0.343481574363710       -0.000318346163708       -0.000035310384623        0.045641265852563
        0.345900458690215       -0.000327286350476       -0.000036302064725        0.046594710764012
        0.348319343016720       -0.000331128368646       -0.000036728615941        0.046814258451500
        0.350738227343225       -0.000334905934164       -0.000037147838078        0.047021816591827
        0.353157111669730       -0.000333269255727       -0.000036966864290        0.046471677723905
        0.355575995996235       -0.000331500187462       -0.000036770998825        0.045910767237217
        0.357994880322740       -0.000324085142708       -0.000035949203312        0.044580884020135
        0.360413764649245       -0.000316471692003       -0.000035105150115        0.043241792728369
        0.362832648975750       -0.000303071281671       -0.000033619478448        0.041135175894425
        0.365251533302255       -0.000289409634553       -0.000032104522374        0.039021246444171
        0.367670417628760       -0.000269915713647       -0.000029942855326        0.036153951147450
        0.370089301955265       -0.000250102100553       -0.000027745352502        0.033281549944329
        0.372508186281770       -0.000224509878572       -0.000024907015826        0.029682435242557
        0.374927070608275       -0.000198544980029       -0.000022026894213        0.026080705153365
        0.377345954934780       -0.000166955724002       -0.000018522971828        0.021790980686611
        0.379764839261285       -0.000134947262136       -0.000014972032875        0.017501381380099
        0.382183723587790       -0.000097569123786       -0.000010825473621        0.012573948697158
        0.384602607914295       -0.000059732564590       -0.000006627485497        0.007649592320245
        0.387021492240800       -0.000016879489302       -0.000001872997488        0.002148191998141
        0.389440376567305        0.000026463183184        0.000002936425740       -0.003347014453779
        0.391859260893810        0.000074374471168        0.000008252695120       -0.009348835297012
        0.394278145220315        0.000122797911120        0.000013626429937       -0.015341226149978
        0.396697029546820        0.000175252816594        0.000019447426274       -0.021761308216801
        0.399115913873325        0.000228233369676        0.000025327389329       -0.028168655987741
        0.401534798199830        0.000284626161907        0.000031585889511       -0.034917563561035
        0.403953682526335        0.000341548747729        0.000037903793904       -0.041650416004004
        0.406372566852840        0.000401191024990        0.000044523340497       -0.048632891323636
        0.408791451179345        0.000461357748568        0.000051201648374       -0.055596025883365
        0.411210335505850        0.000523488502947        0.000058097666327       -0.062712537519188
        0.413629219832355        0.000586128865066        0.000065050723772       -0.069806508636351
        0.416048104158860        0.000649925991222        0.000072131802279       -0.076954867879538
        0.418466988485365        0.000714208540426        0.000079267139084       -0.084077621275618
        0.420885872811870        0.000778801607454        0.000086436458358       -0.091154639691208
        0.423304757138375        0.000843846852104        0.000093656232187       -0.098203166910171
        0.425723641464880        0.000908330936331        0.000100813112145       -0.105106327780763
        0.428142525791385        0.000973225313876        0.000108015673868       -0.111978333866815
        0.430561410117890        0.001036675672173        0.000115057219371       -0.118607450290321
        0.432980294444395        0.001100486354441        0.000122138774027       -0.125203007516608
        0.435399178770900        0.001161973702568        0.000128961589395       -0.131461840375490
        0.437818063097405        0.001223764000621        0.000135817925293       -0.137685001386029
        0.440236947423910        0.001282370149213        0.000142319869306       -0.143482811255955
        0.442655831750415        0.001341215269059        0.000148848126301       -0.149243155819781
        0.445074716076920        0.001396048861099        0.000154930077851       -0.154496164106922
        0.447493600403425        0.001451051752530        0.000161030524777       -0.159710254887681
        0.449912484729930        0.001501263840757        0.000166598128767       -0.164342991051730
        0.452331369056435        0.001551570875831        0.000172175919454       -0.168935715346575
        0.454750253382940        0.001596370076542        0.000177141282454       -0.172882228957501
        0.457169137709445        0.001641186292037        0.000182108159675       -0.176788005234949
        0.459588022035950        0.001679853253407        0.000186391465251       -0.179992923801310
        0.462006906362455        0.001718456893135        0.000190667382381       -0.183156754045905
        0.464425790688960        0.001750357821737        0.000194198396908       -0.185576170014966
        0.466844675015465        0.001782113920144        0.000197713027995       -0.187954521340996
        0.469263559341970        0.001806712918902        0.000200432469211       -0.189556694375745
        0.471682443668475        0.001831085677133        0.000203126579616       -0.191118196072124
