#           time (fs)    |     mu_x (e.angstrom)   |     mu_y (e.angstrom)   |     mu_z (e.angstrom)   |
        0.000000000000000       -0.000000000000000       -0.000000000000000        0.000000000000000
        0.002418884326505        0.000000016029615        0.000000007608610       -0.000074675975072
        0.004837768653010        0.000000064129192        0.000000030440308       -0.000149378677520
        0.007256652979515        0.000000143525175        0.000000068126749       -0.000222871772838
        0.009675537306020        0.000000239845325        0.000000113847770       -0.000279328184111
        0.012094421632525        0.000000357858154        0.000000169864146       -0.000333404491984
        0.014513305959030        0.000000455566028        0.000000216244266       -0.000353691189042
        0.016932190285535        0.000000556796072        0.000000264293944       -0.000370518302576
        0.019351074612040        0.000000579503980        0.000000275074093       -0.000337420356944
        0.021769958938545        0.000000579519372        0.000000275079662       -0.000299927985424
        0.024188843265050        0.000000423563308        0.000000201053477       -0.000197289452791
        0.026607727591555        0.000000211415055        0.000000100350599       -0.000089517280201
        0.029026611918060       -0.000000251009324       -0.000000119147017        0.000097426017202
        0.031445496244565       -0.000000809430669       -0.000000384216290        0.000289999158003
        0.033864380571070       -0.000001726344897       -0.000000819446961        0.000574310247083
        0.036283264897575       -0.000002784186078       -0.000001321577041        0.000864461520483
        0.038702149224080       -0.000004319207140       -0.000002050205110        0.001257221613928
        0.041121033550585       -0.000006043855542       -0.000002868850037        0.001655708900642
        0.043539917877090       -0.000008370980669       -0.000003973467056        0.002165770322121
        0.045958802203595       -0.000010938703247       -0.000005192295748        0.002681091293720
        0.048377686530100       -0.000014236620806       -0.000006757720017        0.003314868322430
        0.050796570856605       -0.000017826761560       -0.000008461861979        0.003953058103094
        0.053215455183110       -0.000022272819618       -0.000010572275599        0.004714359457818
        0.055634339509615       -0.000027061689979       -0.000012845420859        0.005478830481639
        0.058053223836120       -0.000032825663459       -0.000015581411170        0.006368736488723
        0.060472108162625       -0.000038980268579       -0.000018502832332        0.007260163473870
        0.062890992489130       -0.000046218072291       -0.000021938407676        0.008276950233092
        0.065309876815635       -0.000053889821914       -0.000025579974643        0.009293202454294
        0.067728761142140       -0.000062737320127       -0.000029779625936        0.010432314542960
        0.070147645468645       -0.000072055875251       -0.000034202885102        0.011568436802885
        0.072566529795150       -0.000082622938544       -0.000039218764793        0.012822509254356
        0.074985414121655       -0.000093690344431       -0.000044472154143        0.014070752145575
        0.077404298448160       -0.000106055301530       -0.000050341442658        0.015429681617413
        0.079823182774665       -0.000118940553728       -0.000056457712418        0.016779580843626
        0.082242067101170       -0.000133145179704       -0.000063200239199        0.018230645066831
        0.084660951427675       -0.000147879362670       -0.000070194144276        0.019669148769115
        0.087079835754180       -0.000163924535514       -0.000077810326081        0.021197172558043
        0.089498720080685       -0.000180496663281       -0.000085676651747        0.022708814783752
        0.091917604407190       -0.000198338808564       -0.000094145805029        0.024296380100652
        0.094336488733695       -0.000216692483887       -0.000102857781113        0.025863497773593
        0.096755373060200       -0.000236240912189       -0.000112136858174        0.027491194596366
        0.099174257386705       -0.000256271904939       -0.000121645009594        0.029094184610809
        0.101593141713210       -0.000277387129338       -0.000131667799948        0.030740898660787
        0.104012026039715       -0.000298941956940       -0.000141899272883        0.032358511041898
        0.106430910366220       -0.000321435058383       -0.000152576102009        0.034001743802336
        0.108849794692725       -0.000344310631138       -0.000163434495547        0.035611406263433
        0.111268679019230       -0.000367943718354       -0.000174652443204        0.037227622169878
        0.113687563345735       -0.000391888090984       -0.000186018166076        0.038805790863129
        0.116106447672240       -0.000416375879248       -0.000197641815693        0.040370786083012
        0.118525331998745       -0.000441090127304       -0.000209372976954        0.041893316893472
        0.120944216325250       -0.000466102637151       -0.000221245696632        0.043382603741827
        0.123363100651755       -0.000491243853615       -0.000233179528061        0.044825138122317
        0.125781984978260       -0.000516410207091       -0.000245125272550        0.046214338889012
        0.128200869304765       -0.000541595590896       -0.000257080069352        0.047552697980493
        0.130619753631270       -0.000566508859569       -0.000268905681262        0.048817941775779
        0.133038637957775       -0.000591320844460       -0.000280683236597        0.050028522408060
        0.135457522284280       -0.000615543880620       -0.000292181214303        0.051146838569522
        0.137876406610785       -0.000639536230153       -0.000303569712405        0.052207004692155
        0.140295290937290       -0.000662608390934       -0.000314521401800        0.053156706337665
        0.142714175263795       -0.000685313163980       -0.000325298724306        0.054045169490564
        0.145133059590300       -0.000706757817913       -0.000335477881944        0.054806220947153
        0.147551943916805       -0.000727693089158       -0.000345415272595        0.055503403543393
        0.149970828243310       -0.000747025776340       -0.000354591939097        0.056057765628117
        0.152389712569815       -0.000765703978441       -0.000363457963521        0.056546141084167
        0.154808596896320       -0.000782441079480       -0.000371402578475        0.056878088555672
        0.157227481222825       -0.000798377818016       -0.000378967308398        0.057142492662549
        0.159646365549330       -0.000812045573478       -0.000385454991633        0.057238898595337
        0.162065249875835       -0.000824768753040       -0.000391494336773        0.057266806971844
        0.164484134202340       -0.000834912464591       -0.000396309255885        0.057117389322214
        0.166903018528845       -0.000843971554507       -0.000400609362123        0.056899156321453
        0.169321902855350       -0.000850164791558       -0.000403549102603        0.056496682546605
        0.171740787181855       -0.000855140053081       -0.000405910731877        0.056025737591016
        0.174159671508360       -0.000856993684665       -0.000406790584291        0.055366183841626
        0.176578555834865       -0.000857505178189       -0.000407033390056        0.054639181830594
        0.178997440161370       -0.000854676049188       -0.000405690468402        0.053721843952201
        0.181416324487875       -0.000850392240218       -0.000403657080646        0.052738767109510
        0.183835208814380       -0.000842591313914       -0.000399954187391        0.051566321448253
        0.186254093140885       -0.000833237100241       -0.000395514022908        0.050330530743223
        0.188672977467390       -0.000820236895591       -0.000389343179252        0.048909043545112
        0.191091861793895       -0.000805600885347       -0.000382395896322        0.047427278619320
        0.193510746120400       -0.000787242047167       -0.000373681460880        0.045766163627084
        0.195929630446905       -0.000767182928078       -0.000364159982578        0.044048490975638
        0.198348514773410       -0.000743379781500       -0.000352861287920        0.042160415650390
        0.200767399099915       -0.000717831635575       -0.000340734324846        0.040220125630082
        0.203186283426420       -0.000688576592342       -0.000326847769042        0.038120867243709
        0.205605167752925       -0.000657553027255       -0.000312121780372        0.035974321296843
        0.208024052079430       -0.000622919730549       -0.000295682319750        0.033682574941943
        0.210442936405935       -0.000586516718724       -0.000278402860871        0.031349005221179
        0.212861820732440       -0.000546661834799       -0.000259484860457        0.028886146555835
        0.215280705058945       -0.000505059173467       -0.000239737276010        0.026387410899099
        0.217699589385450       -0.000460222762164       -0.000218454685399        0.023777217170970
        0.220118473711955       -0.000413684091968       -0.000196364118116        0.021137513093892
        0.222537358038460       -0.000364188513671       -0.000172869952634        0.018405846660361
        0.224956242364965       -0.000313059859323       -0.000148600650626        0.015651388694928
        0.227375126691470       -0.000259307202694       -0.000123085770352        0.012825847862020
        0.229794011017975       -0.000204014026323       -0.000096839688418        0.009984513163296
        0.232212895344480       -0.000146482068701       -0.000069530880697        0.007094055695826
        0.234631779670985       -0.000087524854289       -0.000041545584383        0.004195003353679
        0.237050663997490       -0.000026761594461       -0.000012702968686        0.001269548453620
        0.239469548323995        0.000035289990317        0.000016751136928       -0.001657181625092
        0.241888432650500        0.000098673159736        0.000046837349877       -0.004587166723106
        0.244307316977005        0.000163187450409        0.000077460431586       -0.007511069161853
        0.246726201303510        0.000228523836976        0.000108473781807       -0.010414991575714
        0.249145085630015        0.000294815607444        0.000139940582224       -0.013305518669985
        0.251563969956520        0.000361392459831        0.000171542746891       -0.016153084683439
        0.253982854283025        0.000428732480153        0.000203507121250       -0.018980070770113
        0.256401738609530        0.000495801232979        0.000235342777622       -0.021741706476869
        0.258820622936035        0.000563426800884        0.000267442692792       -0.024475786938841
        0.261239507262540        0.000630214159036        0.000299144779632       -0.027123048181657
        0.263658391589045        0.000697340435414        0.000331007694750       -0.029736066575814
        0.266077275915550        0.000763060114889        0.000362202985359       -0.032242031811713
        0.268496160242055        0.000828892075511        0.000393451524978       -0.034707428793978
        0.270915044568560        0.000892757002289        0.000423766417660       -0.037047068786444
        0.273333928895065        0.000956501803203        0.000454024241245       -0.039340246795155
        0.275752813221570        0.001017736559672        0.000483090667271       -0.041490765402145
        0.278171697548075        0.001078616102422        0.000511988433557       -0.043589423445921
        0.280590581874580        0.001136469402546        0.000539449778772       -0.045530564232761
        0.283009466201085        0.001193732877936        0.000566631099930       -0.047414997604826
        0.285428350527590        0.001247489848004        0.000592148034078       -0.049129311555989
        0.287847234854095        0.001300426033563        0.000617275312974       -0.050782671855842
        0.290266119180600        0.001349420075053        0.000640531420659       -0.052255742080261
        0.292685003507105        0.001397369162030        0.000663291464796       -0.053664253556494
        0.295103887833610        0.001440993176938        0.000683998573827       -0.054884873567283
        0.297522772160115        0.001483357907368        0.000704107881790       -0.056038002491829
        0.299941656486620        0.001521074674327        0.000722010988434       -0.056998305381914
        0.302360540813125        0.001557330577593        0.000739220608899       -0.057888879914746
        0.304779425139630        0.001588682079037        0.000754102305219       -0.058584416532842
        0.307198309466135        0.001618386610253        0.000768202174681       -0.059208695325037
        0.309617193792640        0.001643002126738        0.000779886490676       -0.059638460369059
        0.312036078119145        0.001665802525955        0.000790709163996       -0.059996148968439
        0.314454962445650        0.001683405333180        0.000799064746493       -0.060162554742759
        0.316873846772155        0.001699045044750        0.000806488443985       -0.060256769696976
        0.319292731098660        0.001709457571602        0.000811431005013       -0.060165568112661
        0.321711615425165        0.001717781086557        0.000815381910983       -0.060002749496420
        0.324130499751670        0.001720928418232        0.000816875890606       -0.059662903716575
        0.326549384078175        0.001721884428981        0.000817329650801       -0.059252677629517
        0.328968268404680        0.001717796067475        0.000815389052773       -0.058676185562070
        0.331387152731185        0.001711438853018        0.000812371431898       -0.058031178938794
        0.333806037057690        0.001700248677632        0.000807059804916       -0.057232851543982
        0.336224921384195        0.001686737668329        0.000800646480046       -0.056368462375283
        0.338643805710700        0.001668682070674        0.000792076032490       -0.055365660472744
        0.341062690037205        0.001648279573920        0.000782391513511       -0.054299787245491
        0.343481574363710        0.001623693774795        0.000770721365171       -0.053112121164898
        0.345900458690215        0.001596760876132        0.000757937049154       -0.051864855976001
        0.348319343016720        0.001566073464946        0.000743370639247       -0.050513852985257
        0.350738227343225        0.001533064152629        0.000727702021544       -0.049107143362465
        0.353157111669730        0.001496789923147        0.000710483708050       -0.047615888319130
        0.355575995996235        0.001458243517382        0.000692186788671       -0.046073173278758
        0.357994880322740        0.001416974705942        0.000672597689362       -0.044465928375277
        0.360413764649245        0.001373506706297        0.000651964628499       -0.042811754656137
        0.362832648975750        0.001327902769606        0.000630317768746       -0.041113564460411
        0.365251533302255        0.001280194264867        0.000607671859933       -0.039373189187252
        0.367670417628760        0.001230970363485        0.000584306706147       -0.037609477411405
        0.370089301955265        0.001179756176889        0.000559996749135       -0.035808463654433
        0.372508186281770        0.001127670556941        0.000535273219225       -0.034004628211788
        0.374927070608275        0.001073726325688        0.000509667386995       -0.032168440017185
        0.377345954934780        0.001019566814718        0.000483959440328       -0.030349452947781
        0.379764839261285        0.000963695225415        0.000457438745449       -0.028503056414949
        0.382183723587790        0.000908265078020        0.000431127664178       -0.026693075172147
        0.384602607914295        0.000851281498734        0.000404079138744       -0.024860552045973
        0.387021492240800        0.000795384843343        0.000377546619810       -0.023082548441477
        0.389440376567305        0.000738102607817        0.000350356330280       -0.021286728472980
        0.391859260893810        0.000682529757269        0.000323977512753       -0.019562141277440
        0.394278145220315        0.000625745367202        0.000297023535890       -0.017824259286814
        0.396697029546820        0.000571258262341        0.000271160091464       -0.016172676082322
        0.399115913873325        0.000515736779204        0.000244805580246       -0.014512059239206
        0.401534798199830        0.000463054836368        0.000219798995438       -0.012950932624861
        0.403953682526335        0.000409515734785        0.000194385464060       -0.011384722948442
        0.406372566852840        0.000359302364637        0.000170550641086       -0.009929125618723
        0.408791451179345        0.000308406114861        0.000146391596038       -0.008472042103526
        0.411210335505850        0.000261256171580        0.000124010895297       -0.007134464661367
        0.413629219832355        0.000213591809014        0.000101385934973       -0.005798608763522
        0.416048104158860        0.000170020215416        0.000080703775716       -0.004588803407186
        0.418466988485365        0.000126094140612        0.000059853274090       -0.003383510892341
        0.420885872811870        0.000086525916599        0.000041071401207       -0.002308383340082
        0.423304757138375        0.000046752149930        0.000022191882001       -0.001240124711046
        0.425723641464880        0.000011514048983        0.000005465396100       -0.000303675914025
        0.428142525791385       -0.000023793859492       -0.000011294307371        0.000623993182500
        0.430561410117890       -0.000054479927787       -0.000025860072101        0.001420674826112
        0.432980294444395       -0.000085115160359       -0.000040401789344        0.002207112653959
        0.435399178770900       -0.000111136774135       -0.000052753469428        0.002865808717400
        0.437818063097405       -0.000137003537658       -0.000065031730157        0.003513236252592
        0.440236947423910       -0.000158360358741       -0.000075169165069        0.004038506306116
        0.442655831750415       -0.000179476099379       -0.000085192250487        0.004551906909002
        0.445074716076920       -0.000196280343117       -0.000093168705664        0.004950948948084
        0.447493600403425       -0.000212775812455       -0.000100998679842        0.005337920843608
        0.449912484729930       -0.000225250550840       -0.000106920041225        0.005620386701926
        0.452331369056435       -0.000237367690313       -0.000112671746902        0.005890950983612
        0.454750253382940       -0.000245842986719       -0.000116694686204        0.006068720052942
        0.457169137709445       -0.000253930636511       -0.000120533707921        0.006235087655293
        0.459588022035950       -0.000258837549771       -0.000122862836537        0.006322002915849
        0.462006906362455       -0.000263345027862       -0.000125002452792        0.006398304668632
        0.464425790688960       -0.000265207562581       -0.000125886500836        0.006409875645887
        0.466844675015465       -0.000266676198815       -0.000126583665549        0.006411860122320
        0.469263559341970       -0.000266101317127       -0.000126310740724        0.006364937920976
        0.471682443668475       -0.000265154065395       -0.000125861152432        0.006309642311374
