#           time (fs)    |     mu_x (e.angstrom)   |     mu_y (e.angstrom)   |     mu_z (e.angstrom)   |
        0.000000000000000       -0.000000000000000       -0.000000000000000        0.000000000000000
        0.002418884326505        0.000000001340982       -0.000000005034025       -0.000029301062633
        0.004837768653010        0.000000005366602       -0.000000020144012       -0.000058620481608
        0.007256652979515        0.000000012011451       -0.000000045087627       -0.000087458330939
        0.009675537306020        0.000000006733197       -0.000000025273687       -0.000036763923253
        0.012094421632525       -0.000000003364788        0.000000012627331        0.000014694219204
        0.014513305959030       -0.000000061420329        0.000000230546307        0.000223512106360
        0.016932190285535       -0.000000138749576        0.000000520804780        0.000432725688223
        0.019351074612040       -0.000000320203783        0.000001201912272        0.000873689297205
        0.021769958938545       -0.000000541677283        0.000002033229123        0.001313586223241
        0.024188843265050       -0.000000941480863        0.000003533933828        0.002054531497756
        0.026607727591555       -0.000001407273339        0.000005282332046        0.002791435869021
        0.029026611918060       -0.000002140792026        0.000008035686696        0.003892031083344
        0.031445496244565       -0.000002970109629        0.000011148651207        0.004983720349770
        0.033864380571070       -0.000004168212799        0.000015645947509        0.006493644960690
        0.036283264897575       -0.000005494103907        0.000020622990237        0.007987579021930
        0.038702149224080       -0.000007297384390        0.000027392124529        0.009944903984629
        0.041121033550585       -0.000009260729685        0.000034762306640        0.011876667010904
        0.043539917877090       -0.000011813011689        0.000044343517946        0.014306475377761
        0.045958802203595       -0.000014555859956        0.000054640565254        0.016698468299851
        0.048377686530100       -0.000017997178754        0.000067560243293        0.019611751343093
        0.050796570856605       -0.000021655620875        0.000081295981673        0.022472168911161
        0.053215455183110       -0.000026114881767        0.000098039322437        0.025865028158273
        0.055634339509615       -0.000030811677970        0.000115676233423        0.029187149122001
        0.058053223836120       -0.000036399221592        0.000136659579814        0.033040328562991
        0.060472108162625       -0.000042236414649        0.000158583327937        0.036802140934585
        0.062890992489130       -0.000049036729443        0.000184127068736        0.041080906380996
        0.065309876815635       -0.000056088487721        0.000210619878247        0.045245082095767
        0.067728761142140       -0.000064153316825        0.000240922787628        0.049899456502626
        0.070147645468645       -0.000072459254352        0.000272138544792        0.054413681400349
        0.072566529795150       -0.000081801342098        0.000307254425451        0.059379036273005
        0.074985414121655       -0.000091360557239        0.000343196353307        0.064176692591140
        0.077404298448160       -0.000101948269096        0.000383013799652        0.069374686828022
        0.079823182774665       -0.000112714328448        0.000423515496142        0.074375876775994
        0.082242067101170       -0.000124467357586        0.000467741522223        0.079715725902307
        0.084660951427675       -0.000136344427631        0.000512452073129        0.084828616817657
        0.087079835754180       -0.000149130771965        0.000560600256890        0.090208667962453
        0.089498720080685       -0.000161971068833        0.000608974036242        0.095331132415491
        0.091917604407190       -0.000175605425855        0.000660357722123        0.100640713903924
        0.094336488733695       -0.000189208115017        0.000711649379749        0.105662232189271
        0.096755373060200       -0.000203451799975        0.000765380360896        0.110783741462987
        0.099174257386705       -0.000217563434950        0.000818645374630        0.115587529326243
        0.101593141713210       -0.000232125883448        0.000873638348829        0.120398719118384
        0.104012026039715       -0.000246442428264        0.000927739392077        0.124864040296645
        0.106430910366220       -0.000260984299658        0.000982722356072        0.129240460477683
        0.108849794692725       -0.000275154736266        0.001036341603283        0.133245081529052
        0.111268679019230       -0.000289292591685        0.001089872220987        0.137062632586208
        0.113687563345735       -0.000302924073006        0.001141529586042        0.140485376287069
        0.116106447672240       -0.000316236563342        0.001192017438492        0.143622929703571
        0.118525331998745       -0.000328901036599        0.001240094614562        0.146346282688681
        0.120944216325250       -0.000340936502512        0.001285829113077        0.148688323223281
        0.123363100651755       -0.000352178696865        0.001328599156405        0.150601053219605
        0.125781984978260       -0.000362464055168        0.001367782774154        0.152040297957482
        0.128200869304765       -0.000371810702305        0.001403444847138        0.153040035662865
        0.130619753631270       -0.000379861470478        0.001434231196728        0.153479984507447
        0.133038637957775       -0.000386831605974        0.001460949956240        0.153475724740095
        0.135457522284280       -0.000392162897916        0.001481486110916        0.152833096658346
        0.137876406610785       -0.000396279073406        0.001497435095443        0.151747572840682
        0.140295290937290       -0.000398417383183        0.001505907419205        0.149954581725967
        0.142714175263795       -0.000399217602978        0.001509315654091        0.147726467202490
        0.145133059590300       -0.000397713177454        0.001503998273249        0.144732890887984
        0.147551943916805       -0.000394763356427        0.001493199179823        0.141318780281795
        0.149970828243310       -0.000389202940685        0.001472504099243        0.137093776352222
        0.152389712569815       -0.000382109661634        0.001445985665962        0.132469900508675
        0.154808596896320       -0.000372129381848        0.001408513413454        0.127003523520483
        0.157227481222825       -0.000360552709434        0.001364968472254        0.121167152983638
        0.159646365549330       -0.000345850836095        0.001309558051919        0.114471529927661
        0.162065249875835       -0.000329516920932        0.001247933408991        0.107442024740604
        0.164484134202340       -0.000309866231743        0.001173710267526        0.099552149424619
        0.166903018528845       -0.000288579413646        0.001093253373515        0.091371617645520
        0.169321902855350       -0.000263838851698        0.000999674041009        0.082345730374347
        0.171740787181855       -0.000237492947536        0.000899975859212        0.073079264216551
        0.174159671508360       -0.000207618249348        0.000786867925190        0.062998790769085
        0.176578555834865       -0.000176206691577        0.000667900674195        0.052734257676665
        0.178997440161370       -0.000141259644506        0.000535496805593        0.041703290984386
        0.181416324487875       -0.000104884124841        0.000397645318462        0.030550667008485
        0.183835208814380       -0.000065040107965        0.000246610120616        0.018694985784518
        0.186254093140885       -0.000023917380376        0.000090695676269        0.006785229898654
        0.188672977467390        0.000020529149221       -0.000077855661062       -0.005749139773157
        0.191091861793895        0.000066062637624       -0.000250560020789       -0.018265659877051
        0.193510746120400        0.000114695027522       -0.000435052168564       -0.031314321957443
        0.195929630446905        0.000164180977924       -0.000622815627981       -0.044269830197617
        0.198348514773410        0.000216459904982       -0.000821213316770       -0.057652305487720
        0.200767399099915        0.000269318731697       -0.001021851151701       -0.070864010345149
        0.203186283426420        0.000324584582601       -0.001231669552629       -0.084386392563394
        0.205605167752925        0.000380118886186       -0.001442557205589       -0.097659229426555
        0.208024052079430        0.000437597132785       -0.001660882679027       -0.111117161669975
        0.210442936405935        0.000494998185310       -0.001878980138055       -0.124246833470354
        0.212861820732440        0.000553807805732       -0.002102501296519       -0.137428749435116
        0.215280705058945        0.000612165060357       -0.002324387639808       -0.150205008752154
        0.217699589385450        0.000671329960866       -0.002549436445609       -0.162895578601888
        0.220118473711955        0.000729643500586       -0.002771354198861       -0.175105690910082
        0.222537358038460        0.000788106794774       -0.002993956611473       -0.187089409381103
        0.224956242364965        0.000845302538263       -0.003211865371426       -0.198521735661932
        0.227375126691470        0.000901943445473       -0.003427800877603       -0.209586589617100
        0.229794011017975        0.000956890837465       -0.003637439484999       -0.220034226818862
        0.232212895344480        0.001010543877191       -0.003842308686162       -0.229975380581192
        0.234631779670985        0.001062075712208       -0.004039265082661       -0.239239799906650
        0.237050663997490        0.001111551800640       -0.004228564375525       -0.247863238802706
        0.239469548323995        0.001158485766546       -0.004408352147031       -0.255757864010578
        0.241888432650500        0.001202594769043       -0.004577554409136       -0.262883939103616
        0.244307316977005        0.001243756253673       -0.004735694896613       -0.269237609426422
        0.246726201303510        0.001281330514621       -0.004880334972006       -0.274704428961141
        0.249145085630015        0.001315576195592       -0.005012443713701       -0.279364693468721
        0.251563969956520        0.001345494554853       -0.005128207379376       -0.283031308747228
        0.253982854283025        0.001371736288737       -0.005230083530679       -0.285867500794306
        0.256401738609530        0.001392948099991       -0.005312898508488       -0.287616835955106
        0.258820622936035        0.001410176639740       -0.005380615765199       -0.288522877695585
        0.261239507262540        0.001421725326810       -0.005426743225088       -0.288264354159244
        0.263658391589045        0.001429033421592       -0.005456740653736       -0.287161242139187
        0.266077275915550        0.001430079140040       -0.005462865536956       -0.284833049652623
        0.268496160242055        0.001426683604768       -0.005452036597847       -0.281670973566272
        0.270915044568560        0.001416524612430       -0.005415354979749       -0.277241941172924
        0.273333928895065        0.001401786989994       -0.005361132923294       -0.272001989418988
        0.275752813221570        0.001379879366578       -0.005279434545302       -0.265473011820862
        0.278171697548075        0.001353324839381       -0.005179872281903       -0.258168420051148
        0.280590581874580        0.001319300227464       -0.005051616324076       -0.249573398216600
        0.283009466201085        0.001280634462527       -0.004905458825770       -0.240250301109131
        0.285428350527590        0.001234315527063       -0.004729840978303       -0.229656561056207
        0.287847234854095        0.001183439158308       -0.004536588279367       -0.218394213446904
        0.290266119180600        0.001124852477660       -0.004313597215492       -0.205902374189530
        0.292685003507105        0.001061872939531       -0.004073556150123       -0.192812815661256
        0.295103887833610        0.000991259048594       -0.003804017613042       -0.178556086434320
        0.297522772160115        0.000916499478397       -0.003518340567859       -0.163783233468432
        0.299941656486620        0.000834319785961       -0.003203947464733       -0.147926131402756
        0.302360540813125        0.000748324711599       -0.002874656633764       -0.131644292987220
        0.304779425139630        0.000655265014099       -0.002517983779054       -0.114380785007018
        0.307198309466135        0.000558802544120       -0.002147979684954       -0.096792610685754
        0.309617193792640        0.000455772861748       -0.001752482146100       -0.078343696968449
        0.312036078119145        0.000349833101858       -0.001345535523561       -0.059677580053909
        0.314454962445650        0.000237963576899       -0.000915529881516       -0.040288350204333
        0.316873846772155        0.000123753017416       -0.000476256392427       -0.020795322502432
        0.319292731098660        0.000004385644589       -0.000016884621037       -0.000731528871539
        0.321711615425165       -0.000116682697683        0.000449297732108        0.019318303986972
        0.324130499751670       -0.000242006688172        0.000932121659546        0.039774099411982
        0.326549384078175       -0.000368327528310        0.001419052154508        0.060095521774686
        0.328968268404680       -0.000497884739389        0.001918712425147        0.080648160396355
        0.331387152731185       -0.000627679250982        0.002419563621019        0.100945140228558
        0.333806037057690       -0.000759585643746        0.002928828628106        0.121291365538701
        0.336224921384195       -0.000890924611157        0.003436197735906        0.141261602023779
        0.338643805710700       -0.001023161368991        0.003947320792176        0.161094764575486
        0.341062690037205       -0.001153992591439        0.004453335088697        0.180434409787262
        0.343481574363710       -0.001284436066467        0.004958168297958        0.199449296429330
        0.345900458690215       -0.001412615694930        0.005454602988027        0.217857769607924
        0.348319343016720       -0.001539071030829        0.005944722522573        0.235755474673643
        0.350738227343225       -0.001662398367992        0.006423129233846        0.252940288167017
        0.353157111669730       -0.001782636243754        0.006889970069397        0.269433045916929
        0.355575995996235       -0.001898891391161        0.007341813986312        0.285114564034225
        0.357994880322740       -0.002010687191224        0.007776811991124        0.299930464663616
        0.360413764649245       -0.002117670796810        0.008193615493377        0.313846520007101
        0.362832648975750       -0.002218845394502        0.008588354645642        0.326734035422546
        0.365251533302255       -0.002314419648048        0.008961845202864        0.338644331225424
        0.367670417628760       -0.002402880900849        0.009308207611711        0.349376581107008
        0.370089301955265       -0.002485010852764        0.009630467591527        0.359066812297500
        0.372508186281770       -0.002558794856660        0.009920783914406        0.367445505350613
        0.374927070608275       -0.002625589102848        0.010184399879800        0.374731135223732
        0.377345954934780       -0.002682900243195        0.010411597658324        0.380590124804314
        0.379764839261285       -0.002732650028107        0.010609806659755        0.385319758218630
        0.382183723587790       -0.002771898896744        0.010767554036842        0.388528155682433
        0.384602607914295       -0.002803114737122        0.010894384346690        0.390586453689487
        0.387021492240800       -0.002822953057059        0.010977226584190        0.391051247027353
        0.389440376567305       -0.002834398075719        0.011027630282196        0.390361332013621
        0.391859260893810       -0.002833749879271        0.011031116478181        0.388029461875260
        0.394278145220315       -0.002824469153921        0.011001091286364        0.384554766978506
        0.396697029546820       -0.002802557588523        0.010921888706225        0.379414617411459
        0.399115913873325       -0.002771902954830        0.010808586502492        0.373160139530495
        0.401534798199830       -0.002728272231930        0.010644580000258        0.365242407026473
        0.403953682526335       -0.002675922121401        0.010446399524173        0.356255329510941
        0.406372566852840       -0.002610454265941        0.010196773652233        0.345633241552002
        0.408791451179345       -0.002536428295964        0.009913435065174        0.334002900877187
        0.411210335505850       -0.002449354485887        0.009578736661166        0.320791764279240
        0.413629219832355       -0.002354022641143        0.009211335844106        0.306648944774923
        0.416048104158860       -0.002245929038578        0.008793515148393        0.291005014741744
        0.418466988485365       -0.002130015381906        0.008344555916467        0.274520566672438
        0.420885872811870       -0.002001843444035        0.007846984612099        0.256639239423298
        0.423304757138375       -0.001866424366221        0.007320387392986        0.238022028147514
        0.425723641464880       -0.001719465681605        0.006747852366192        0.218135372915061
        0.428142525791385       -0.001565962742981        0.006148938320222        0.197629580060060
        0.430561410117890       -0.001401848470100        0.005507610401443        0.176003239680274
        0.432980294444395       -0.001232015906023        0.004843060441138        0.153885050714789
        0.435399178770900       -0.001052700900781        0.004140437888058        0.130814553366203
        0.437818063097405       -0.000868607865570        0.003418226565635        0.107388279036363
        0.440236947423910       -0.000676349582608        0.002663053571238        0.083194816324720
        0.442655831750415       -0.000480357202808        0.001892358324421        0.058788507544337
        0.445074716076920       -0.000277689453242        0.001094519354551        0.033814245505912
        0.447493600403425       -0.000072422763071        0.000285606114051        0.008774871938598
        0.449912484729930        0.000137875579320       -0.000544002618916       -0.016622128815335
        0.452331369056435        0.000349560727897       -0.001379915970595       -0.041933857478356
        0.454750253382940        0.000564501947690       -0.002229536124777       -0.067385028654339
        0.457169137709445        0.000779556860729       -0.003080436508321       -0.092600113074728
        0.459588022035950        0.000995985361215       -0.003937616128022       -0.117731983414157
        0.462006906362455        0.001211211143635       -0.004790869906833       -0.142478766558836
        0.464425790688960        0.001425848859475       -0.005642648281020       -0.166918691975208
        0.466844675015465        0.001637943382955       -0.006485191117534       -0.190828580238323
        0.469263559341970        0.001847439224093       -0.007318297119160       -0.214210505831762
        0.471682443668475        0.002053047933939       -0.008136836098360       -0.236923686532049
