#           time (fs)    |     mu_x (e.angstrom)   |     mu_y (e.angstrom)   |     mu_z (e.angstrom)   |
        0.000000000000000       -0.000000000000000       -0.000000000000000        0.000000000000000
        0.002418884326505        0.000000000633358        0.000000001310794        0.000035641746396
        0.004837768653010        0.000000008412956        0.000000017411279        0.000236705984630
        0.007256652979515        0.000000023310039        0.000000048241984        0.000437217654860
        0.009675537306020        0.000000057506281        0.000000119013788        0.000808939818266
        0.012094421632525        0.000000104800493        0.000000216892900        0.001179341138558
        0.014513305959030        0.000000183819497        0.000000380428979        0.001723739493590
        0.016932190285535        0.000000281909082        0.000000583433174        0.002265831057494
        0.019351074612040        0.000000423979212        0.000000877458748        0.002981647552982
        0.021769958938545        0.000000590945697        0.000001223009480        0.003693958289531
        0.024188843265050        0.000000813534755        0.000001683676139        0.004576656179298
        0.026607727591555        0.000001066561459        0.000002207336548        0.005454445144716
        0.029026611918060        0.000001385804846        0.000002868039235        0.006496261133792
        0.031445496244565        0.000001740609010        0.000003602339471        0.007531573733925
        0.033864380571070        0.000002170762234        0.000004492584103        0.008721623932439
        0.036283264897575        0.000002641054106        0.000005465902650        0.009903401787131
        0.038702149224080        0.000003193982602        0.000006610251152        0.011227839868392
        0.041121033550585        0.000003790964307        0.000007845778707        0.012542082643742
        0.043539917877090        0.000004475682774        0.000009262896712        0.013984307740086
        0.045958802203595        0.000005207599035        0.000010777707505        0.015414284415465
        0.048377686530100        0.000006029871527        0.000012479537875        0.016955195462131
        0.050796570856605        0.000006901623263        0.000014283791160        0.018481701680927
        0.053215455183110        0.000007863634036        0.000016274873895        0.020099994148954
        0.055634339509615        0.000008876464596        0.000018371165647        0.021701651539428
        0.058053223836120        0.000009976568251        0.000020648121723        0.023374151796486
        0.060472108162625        0.000011127830547        0.000023031003515        0.025027744454803
        0.062890992489130        0.000012360388390        0.000025582196772        0.026729776369907
        0.065309876815635        0.000013643399539        0.000028237875298        0.028410619083011
        0.067728761142140        0.000014998707262        0.000031043262812        0.030116396957383
        0.070147645468645        0.000016402695514        0.000033949489804        0.031798729218859
        0.072566529795150        0.000017867005407        0.000036980667189        0.033481770689467
        0.074985414121655        0.000019377152213        0.000040106825471        0.035139170135210
        0.077404298448160        0.000020932791099        0.000043327269501        0.036772722366338
        0.079823182774665        0.000022530369159        0.000046634656843        0.038378530935162
        0.082242067101170        0.000024155951231        0.000050000163604        0.039936003191635
        0.084660951427675        0.000025818557322        0.000053442471838        0.041463759103632
        0.087079835754180        0.000027489289012        0.000056901784474        0.042919154690053
        0.089498720080685        0.000029191168365        0.000060425767238        0.044343023235294
        0.091917604407190        0.000030879240370        0.000063921383309        0.045671363789974
        0.094336488733695        0.000032591697373        0.000067467701705        0.046966559933185
        0.096755373060200        0.000034266757068        0.000070936846277        0.048144295182822
        0.099174257386705        0.000035958645170        0.000074441077911        0.049287491115276
        0.101593141713210        0.000037588340830        0.000077816824873        0.050292887424551
        0.104012026039715        0.000039226622750        0.000081210618120        0.051262598430232
        0.106430910366220        0.000040777209361        0.000084423138881        0.052076099815521
        0.108849794692725        0.000042327577084        0.000087635490945        0.052853042160797
        0.111268679019230        0.000043764572075        0.000090613406714        0.053457597873681
        0.113687563345735        0.000045192114707        0.000093572041145        0.054025012872777
        0.116106447672240        0.000046480990716        0.000096243852479        0.054406366190145
        0.118525331998745        0.000047750897065        0.000098876669359        0.054750305135769
        0.120944216325250        0.000048857797843        0.000101172234619        0.054897238610777
        0.123363100651755        0.000049936079655        0.000103408804663        0.055006803882014
        0.125781984978260        0.000050828544525        0.000105260837511        0.054911337004504
        0.128200869304765        0.000051682765631        0.000107033909873        0.054778875362967
        0.130619753631270        0.000052330447464        0.000108379464986        0.054436411338369
        0.133038637957775        0.000052930443709        0.000109626457727        0.054057656187824
        0.135457522284280        0.000053305805267        0.000110408373562        0.053467075358337
        0.137876406610785        0.000053624380009        0.000111072815449        0.052841235560625
        0.140295290937290        0.000053703353666        0.000111241083132        0.052004933848782
        0.142714175263795        0.000053716933856        0.000111273975789        0.051134727547161
        0.145133059590300        0.000053479530186        0.000110787004069        0.050058599186324
        0.147551943916805        0.000053168768567        0.000110148074475        0.048950231972630
        0.149970828243310        0.000052599620065        0.000108973822182        0.047643596687350
        0.152389712569815        0.000051949929850        0.000107632637093        0.046306684347592
        0.154808596896320        0.000051038757125        0.000105749586596        0.044782160044809
        0.157227481222825        0.000050040766638        0.000103686502653        0.043229597014469
        0.159646365549330        0.000048782755733        0.000101084450500        0.041502919929555
        0.162065249875835        0.000047432671855        0.000098291376554        0.039750695470412
        0.164484134202340        0.000045828752953        0.000094972020641        0.037840490565822
        0.166903018528845        0.000044128623879        0.000091452972099        0.035907455526174
        0.169321902855350        0.000042185643443        0.000087430278408        0.033834960750845
        0.171740787181855        0.000040143513054        0.000083201707185        0.031742548576650
        0.174159671508360        0.000037874293452        0.000078502043219        0.029531297348004
        0.176578555834865        0.000035504241671        0.000073592931067        0.027303203760354
        0.178997440161370        0.000032927524466        0.000068254957548        0.024978670715324
        0.181416324487875        0.000030249590118        0.000062706665035        0.022640497147479
        0.183835208814380        0.000027389861484        0.000056780982170        0.020229712812969
        0.186254093140885        0.000024429846464        0.000050646850374        0.017808579296606
        0.188672977467390        0.000021317045482        0.000044195399837        0.015339719843194
        0.191091861793895        0.000018106201377        0.000037540106730        0.012863853538611
        0.193510746120400        0.000014775314332        0.000030635335518        0.010365812195393
        0.195929630446905        0.000011349915009        0.000023534014037        0.007864118165634
        0.198348514773410        0.000007840461141        0.000016257811249        0.005366065181903
        0.200767399099915        0.000004241267115        0.000008794940959        0.002867686309234
        0.203186283426420        0.000000596683518        0.000001237363397        0.000398624544802
        0.205605167752925       -0.000003131693787       -0.000006494547500       -0.002067502325512
        0.208024052079430       -0.000006864758258       -0.000014236740458       -0.004479179018587
        0.210442936405935       -0.000010674582146       -0.000022138661495       -0.006884763551129
        0.212861820732440       -0.000014447052121       -0.000029963639035       -0.009211702028617
        0.215280705058945       -0.000018288263947       -0.000037931686748       -0.011529530376896
        0.217699589385450       -0.000022049488302       -0.000045734315247       -0.013745833010054
        0.220118473711955       -0.000025870574528       -0.000053661556076       -0.015950180353655
        0.222537358038460       -0.000029569227463       -0.000061335273369       -0.018031796237302
        0.224956242364965       -0.000033318134933       -0.000069113627712       -0.020098815205277
        0.227375126691470       -0.000036903150890       -0.000076552388436       -0.022023901436642
        0.229794011017975       -0.000040528233595       -0.000084074600731       -0.023931980131571
        0.232212895344480       -0.000043949758542       -0.000091174856098       -0.025681227312146
        0.234631779670985       -0.000047400738177       -0.000098336493836       -0.027411311139305
        0.237050663997490       -0.000050611079116       -0.000104999167819       -0.028968227830613
        0.239469548323995       -0.000053840001114       -0.000111700611118       -0.030504099922529
        0.241888432650500       -0.000056794555362       -0.000117833034406       -0.031855251452552
        0.244307316977005       -0.000059756721823       -0.000123981417258       -0.033183767151257
        0.246726201303510       -0.000062414867627       -0.000129499180416       -0.034318964910404
        0.249145085630015       -0.000065069728635       -0.000135010244951       -0.035430236516813
        0.251563969956520       -0.000067395659068       -0.000139838933132       -0.036342674688321
        0.253982854283025       -0.000069707644327       -0.000144638759211       -0.037230203497880
        0.256401738609530       -0.000071671127168       -0.000148715532368       -0.037916541024022
        0.258820622936035       -0.000073610400677       -0.000152742106568       -0.038577294526516
        0.261239507262540       -0.000075187448037       -0.000156017091437       -0.039037681004595
        0.263658391589045       -0.000076730569679       -0.000159221681931       -0.039472114019543
        0.266077275915550       -0.000077904002568       -0.000161659145090       -0.039710159135519
        0.268496160242055       -0.000079034481916       -0.000164007452024       -0.039922178567911
        0.270915044568560       -0.000079794376660       -0.000165586726959       -0.039944865595487
        0.273333928895065       -0.000080503106120       -0.000167059781679       -0.039941739414737
        0.275752813221570       -0.000080847111524       -0.000167775926994       -0.039759284218673
        0.278171697548075       -0.000081132667931       -0.000168370717740       -0.039551496171557
        0.280590581874580       -0.000081066184355       -0.000168234888311       -0.039177154041125
        0.283009466201085       -0.000080934990449       -0.000167964694776       -0.038778206492359
        0.285428350527590       -0.000080471204369       -0.000167004212780       -0.038228029979861
        0.287847234854095       -0.000079937544067       -0.000165898637067       -0.037654198117909
        0.290266119180600       -0.000079097314349       -0.000164156755184       -0.036946749854690
        0.292685003507105       -0.000078183198342       -0.000162261442184       -0.036216791291929
        0.295103887833610       -0.000076994793160       -0.000159796796932       -0.035372816487767
        0.297522772160115       -0.000075729674153       -0.000157172842814       -0.034507641011032
        0.299941656486620       -0.000074228360282       -0.000154058601746       -0.033549705000814
        0.302360540813125       -0.000072648700006       -0.000150781655065       -0.032572009879313
        0.304779425139630       -0.000070876189068       -0.000147104367347       -0.031524106653427
        0.307198309466135       -0.000069024882012       -0.000143263433108       -0.030457983476013
        0.309617193792640       -0.000067028641004       -0.000139121598755       -0.029345121608955
        0.312036078119145       -0.000064954302639       -0.000134817561524       -0.028215641093003
        0.314454962445650       -0.000062786738817       -0.000130319940110       -0.027063413860906
        0.316873846772155       -0.000060542868777       -0.000125663827846       -0.025896195443098
        0.319292731098660       -0.000058260401527       -0.000120927512858       -0.024730342189150
        0.321711615425165       -0.000055904434796       -0.000116038528431       -0.023551115468247
        0.324130499751670       -0.000053566469520       -0.000111186818331       -0.022397081430623
        0.326549384078175       -0.000051158731041       -0.000106190170625       -0.021231246679229
        0.328968268404680       -0.000048826552260       -0.000101350272184       -0.020113748536121
        0.331387152731185       -0.000046429132543       -0.000096374843116       -0.018985943529358
        0.333806037057690       -0.000044164735304       -0.000091675446522       -0.017928547838478
        0.336224921384195       -0.000041840306466       -0.000086851334195       -0.016862228160897
        0.338643805710700       -0.000039705186710       -0.000082420102687       -0.015886949676500
        0.341062690037205       -0.000037515779921       -0.000077876084095       -0.014903989464751
        0.343481574363710       -0.000035569705693       -0.000073837103466       -0.014030916005754
        0.345900458690215       -0.000033575472176       -0.000069698062664       -0.013151235765388
        0.348319343016720       -0.000031875258396       -0.000066169297723       -0.012398185887246
        0.350738227343225       -0.000030133236923       -0.000062553667039       -0.011639413591549
        0.353157111669730       -0.000028731546859       -0.000059644473057       -0.011021632787831
        0.355575995996235       -0.000027294461043       -0.000056661735724       -0.010398803930605
        0.357994880322740       -0.000026238657611       -0.000054470472911       -0.009928704465285
        0.360413764649245       -0.000025153766245       -0.000052218775418       -0.009454006105824
        0.362832648975750       -0.000024484835832       -0.000050830573609       -0.009140954863653
        0.365251533302255       -0.000023792859002       -0.000049394495044       -0.008823517980649
        0.367670417628760       -0.000023544429624       -0.000048879213927       -0.008673675932000
        0.370089301955265       -0.000023278572395       -0.000048327737636       -0.008519419605395
        0.372508186281770       -0.000023476046668       -0.000048738165199       -0.008535635626682
        0.374927070608275       -0.000023661140738       -0.000049122895239       -0.008547165705922
        0.377345954934780       -0.000024320962434       -0.000050493223458       -0.008728926591690
        0.379764839261285       -0.000024972744383       -0.000051846884592       -0.008905490600225
        0.382183723587790       -0.000026101815207       -0.000054191497032       -0.009248928164010
        0.384602607914295       -0.000027226357774       -0.000056526752473       -0.009586427249154
        0.387021492240800       -0.000028821618545       -0.000059839353282       -0.010084382453814
        0.389440376567305       -0.000030414928842       -0.000063147969123       -0.010575440234957
        0.391859260893810       -0.000032463116456       -0.000067401077121       -0.011217583336435
        0.394278145220315       -0.000034510912201       -0.000071653456483       -0.011851670550090
        0.396697029546820       -0.000036988500742       -0.000076798281680       -0.012624675298556
        0.399115913873325       -0.000039466172513       -0.000081943385173       -0.013388288202905
        0.401534798199830       -0.000042339503607       -0.000087910098296       -0.014276057238606
        0.403953682526335       -0.000045212267823       -0.000093875760525       -0.015152946839535
        0.406372566852840       -0.000048437871961       -0.000100574159043       -0.016136884563415
        0.408791451179345       -0.000051661115897       -0.000107267803799       -0.017108332874208
        0.411210335505850       -0.000055186222958       -0.000114588370719       -0.018167661280141
        0.413629219832355       -0.000058706039597       -0.000121898120195       -0.019212800042515
        0.416048104158860       -0.000062469273325       -0.000129713464638       -0.020324912282186
        0.418466988485365       -0.000066223180342       -0.000137509630756       -0.021421078870168
        0.420885872811870       -0.000070155428077       -0.000145676292166       -0.022561924694876
        0.423304757138375       -0.000074073261817       -0.000153813230942       -0.023685049306507
        0.425723641464880       -0.000078098707443       -0.000162173821864       -0.024829546002302
        0.428142525791385       -0.000082103679390       -0.000170492124844       -0.025954563726871
        0.430561410117890       -0.000086140984279       -0.000178877780679       -0.027077025738358
        0.432980294444395       -0.000090150884389       -0.000187206770952       -0.028178306676384
        0.435399178770900       -0.000094114498194       -0.000195439869000       -0.029252886806272
        0.437818063097405       -0.000098043026496       -0.000203600363275       -0.030304677121681
        0.440236947423910       -0.000101844606962       -0.000211497467919       -0.031305812001797
        0.442655831750415       -0.000105602812229       -0.000219304760713       -0.032282678604545
        0.445074716076920       -0.000109152730857       -0.000226679746779       -0.033185531061739
        0.447493600403425       -0.000112650532803       -0.000233946768045       -0.034062802556640
        0.449912484729930       -0.000115859441250       -0.000240614070371       -0.034843693544418
        0.452331369056435       -0.000119007210819       -0.000247154663909       -0.035597890138628
        0.454750253382940       -0.000121787641348       -0.000252932597946       -0.036234713070956
        0.457169137709445       -0.000124497812112       -0.000258564864877       -0.036843958307120
        0.459588022035950       -0.000126765784306       -0.000263278960897       -0.037316568912080
        0.462006906362455       -0.000128954466964       -0.000267828610255       -0.037760976383721
        0.464425790688960       -0.000130631072295       -0.000271314902407       -0.038051551586849
        0.466844675015465       -0.000132219643652       -0.000274618549715       -0.038313580192735
        0.469263559341970       -0.000133232579325       -0.000276726760866       -0.038406940037176
        0.471682443668475       -0.000134149217060       -0.000278635115339       -0.038471711836129
