#     time (fs)  |  E_x (eV/ang)  | E_y (eV/ang) | E_z (eV/ang)
     0.00000000     0.00000000     0.00000000     0.79184787
     0.00241888     0.03278412     0.03278412     0.79150837
     0.00483777     0.06554012     0.06554012     0.79049014
     0.00725665     0.09823992     0.09823992     0.78879405
     0.00967554     0.13085548     0.13085548     0.78642157
     0.01209442     0.16335884     0.16335884     0.78337473
     0.01451331     0.19572211     0.19572211     0.77965614
     0.01693219     0.22791754     0.22791754     0.77526899
     0.01935107     0.25991754     0.25991754     0.77021704
     0.02176996     0.29169465     0.29169465     0.76450462
     0.02418884     0.32322164     0.32322164     0.75813664
     0.02660773     0.35447146     0.35447146     0.75111855
     0.02902661     0.38541732     0.38541732     0.74345636
     0.03144550     0.41603268     0.41603268     0.73515666
     0.03386438     0.44629129     0.44629129     0.72622656
     0.03628326     0.47616720     0.47616720     0.71667371
     0.03870215     0.50563479     0.50563479     0.70650631
     0.04112103     0.53466880     0.53466880     0.69573308
     0.04353992     0.56324433     0.56324433     0.68436325
     0.04595880     0.59133687     0.59133687     0.67240657
     0.04837769     0.61892233     0.61892233     0.65987330
     0.05079657     0.64597707     0.64597707     0.64677418
     0.05321546     0.67247787     0.67247787     0.63312045
     0.05563434     0.69840202     0.69840202     0.61892382
     0.05805322     0.72372729     0.72372729     0.60419645
     0.06047211     0.74843195     0.74843195     0.58895098
     0.06289099     0.77249483     0.77249483     0.57320048
     0.06530988     0.79589529     0.79589529     0.55695846
     0.06772876     0.81861326     0.81861326     0.54023884
     0.07014765     0.84062927     0.84062927     0.52305596
     0.07256653     0.86192443     0.86192443     0.50542456
     0.07498541     0.88248048     0.88248048     0.48735975
     0.07740430     0.90227980     0.90227980     0.46887703
     0.07982318     0.92130541     0.92130541     0.44999224
     0.08224207     0.93954099     0.93954099     0.43072158
     0.08466095     0.95697091     0.95697091     0.41108158
     0.08707984     0.97358022     0.97358022     0.39108907
     0.08949872     0.98935468     0.98935468     0.37076120
     0.09191760     1.00428076     1.00428076     0.35011539
     0.09433649     1.01834566     1.01834566     0.32916937
     0.09675537     1.03153733     1.03153733     0.30794107
     0.09917426     1.04384444     1.04384444     0.28644872
     0.10159314     1.05525645     1.05525645     0.26471073
     0.10401203     1.06576357     1.06576357     0.24274575
     0.10643091     1.07535679     1.07535679     0.22057261
     0.10884979     1.08402788     1.08402788     0.19821034
     0.11126868     1.09176941     1.09176941     0.17567809
     0.11368756     1.09857474     1.09857474     0.15299520
     0.11610645     1.10443804     1.10443804     0.13018112
     0.11852533     1.10935427     1.10935427     0.10725540
     0.12094422     1.11331922     1.11331922     0.08423771
     0.12336310     1.11632950     1.11632950     0.06114779
     0.12578198     1.11838251     1.11838251     0.03800543
     0.12820087     1.11947650     1.11947650     0.01483049
     0.13061975     1.11961053     1.11961053    -0.00835718
     0.13303864     1.11878449     1.11878449    -0.03153767
     0.13545752     1.11699909     1.11699909    -0.05469113
     0.13787641     1.11425584     1.11425584    -0.07779768
     0.14029529     1.11055712     1.11055712    -0.10083753
     0.14271418     1.10590609     1.10590609    -0.12379090
     0.14513306     1.10030673     1.10030673    -0.14663813
     0.14755194     1.09376385     1.09376385    -0.16935961
     0.14997083     1.08628306     1.08628306    -0.19193586
     0.15238971     1.07787078     1.07787078    -0.21434753
     0.15480860     1.06853421     1.06853421    -0.23657539
     0.15722748     1.05828137     1.05828137    -0.25860038
     0.15964637     1.04712105     1.04712105    -0.28040363
     0.16206525     1.03506281     1.03506281    -0.30196643
     0.16448413     1.02211700     1.02211700    -0.32327029
     0.16690302     1.00829471     1.00829471    -0.34429694
     0.16932190     0.99360781     0.99360781    -0.36502835
     0.17174079     0.97806888     0.97806888    -0.38544675
     0.17415967     0.96169124     0.96169124    -0.40553463
     0.17657856     0.94448895     0.94448895    -0.42527476
     0.17899744     0.92647676     0.92647676    -0.44465021
     0.18141632     0.90767010     0.90767010    -0.46364437
     0.18383521     0.88808511     0.88808511    -0.48224096
     0.18625409     0.86773859     0.86773859    -0.50042402
     0.18867298     0.84664797     0.84664797    -0.51817796
     0.19109186     0.82483134     0.82483134    -0.53548756
     0.19351075     0.80230741     0.80230741    -0.55233797
     0.19592963     0.77909550     0.77909550    -0.56871475
     0.19834851     0.75521551     0.75521551    -0.58460386
     0.20076740     0.73068792     0.73068792    -0.59999166
     0.20318628     0.70553376     0.70553376    -0.61486497
     0.20560517     0.67977459     0.67977459    -0.62921102
     0.20802405     0.65343252     0.65343252    -0.64301752
     0.21044294     0.62653012     0.62653012    -0.65627263
     0.21286182     0.59909047     0.59909047    -0.66896498
     0.21528071     0.57113709     0.57113709    -0.68108369
     0.21769959     0.54269396     0.54269396    -0.69261837
     0.22011847     0.51378547     0.51378547    -0.70355912
     0.22253736     0.48443640     0.48443640    -0.71389656
     0.22495624     0.45467192     0.45467192    -0.72362183
     0.22737513     0.42451756     0.42451756    -0.73272659
     0.22979401     0.39399917     0.39399917    -0.74120303
     0.23221290     0.36314293     0.36314293    -0.74904389
     0.23463178     0.33197528     0.33197528    -0.75624243
     0.23705066     0.30052297     0.30052297    -0.76279249
     0.23946955     0.26881296     0.26881296    -0.76868845
     0.24188843     0.23687243     0.23687243    -0.77392526
     0.24430732     0.20472879     0.20472879    -0.77849842
     0.24672620     0.17240959     0.17240959    -0.78240401
     0.24914509     0.13994255     0.13994255    -0.78563868
     0.25156397     0.10735550     0.10735550    -0.78819967
     0.25398285     0.07467640     0.07467640    -0.79008476
     0.25640174     0.04193326     0.04193326    -0.79129236
     0.25882062     0.00915417     0.00915417    -0.79182141
     0.26123951    -0.02363278    -0.02363278    -0.79167147
     0.26365839    -0.05639946    -0.05639946    -0.79084267
     0.26607728    -0.08911778    -0.08911778    -0.78933571
     0.26849616    -0.12175967    -0.12175967    -0.78715190
     0.27091504    -0.15429716    -0.15429716    -0.78429309
     0.27333393    -0.18670234    -0.18670234    -0.78076175
     0.27575281    -0.21894742    -0.21894742    -0.77656090
     0.27817170    -0.25100475    -0.25100475    -0.77169414
     0.28059058    -0.28284684    -0.28284684    -0.76616565
     0.28300947    -0.31444639    -0.31444639    -0.75998017
     0.28542835    -0.34577630    -0.34577630    -0.75314300
     0.28784723    -0.37680970    -0.37680970    -0.74566000
     0.29026612    -0.40751998    -0.40751998    -0.73753759
     0.29268500    -0.43788082    -0.43788082    -0.72878274
     0.29510389    -0.46786617    -0.46786617    -0.71940296
     0.29752277    -0.49745032    -0.49745032    -0.70940628
     0.29994166    -0.52660790    -0.52660790    -0.69880128
     0.30236054    -0.55531391    -0.55531391    -0.68759705
     0.30477943    -0.58354374    -0.58354374    -0.67580321
     0.30719831    -0.61127317    -0.61127317    -0.66342985
     0.30961719    -0.63847844    -0.63847844    -0.65048761
     0.31203608    -0.66513620    -0.66513620    -0.63698756
     0.31445496    -0.69122360    -0.69122360    -0.62294129
     0.31687385    -0.71671828    -0.71671828    -0.60836085
     0.31929273    -0.74159836    -0.74159836    -0.59325873
     0.32171162    -0.76584252    -0.76584252    -0.57764789
     0.32413050    -0.78942996    -0.78942996    -0.56154171
     0.32654938    -0.81234046    -0.81234046    -0.54495401
     0.32896827    -0.83455438    -0.83455438    -0.52789900
     0.33138715    -0.85605265    -0.85605265    -0.51039132
     0.33380604    -0.87681686    -0.87681686    -0.49244597
     0.33622492    -0.89682919    -0.89682919    -0.47407834
     0.33864381    -0.91607248    -0.91607248    -0.45530419
     0.34106269    -0.93453023    -0.93453023    -0.43613962
     0.34348157    -0.95218662    -0.95218662    -0.41660105
     0.34590046    -0.96902649    -0.96902649    -0.39670524
     0.34831934    -0.98503543    -0.98503543    -0.37646926
     0.35073823    -1.00019968    -1.00019968    -0.35591045
     0.35315711    -1.01450626    -1.01450626    -0.33504644
     0.35557600    -1.02794290    -1.02794290    -0.31389513
     0.35799488    -1.04049806    -1.04049806    -0.29247465
     0.36041376    -1.05216099    -1.05216099    -0.27080338
     0.36283265    -1.06292168    -1.06292168    -0.24889988
     0.36525153    -1.07277091    -1.07277091    -0.22678296
     0.36767042    -1.08170024    -1.08170024    -0.20447156
     0.37008930    -1.08970199    -1.08970199    -0.18198483
     0.37250819    -1.09676932    -1.09676932    -0.15934205
     0.37492707    -1.10289616    -1.10289616    -0.13656263
     0.37734595    -1.10807727    -1.10807727    -0.11366611
     0.37976484    -1.11230818    -1.11230818    -0.09067211
     0.38218372    -1.11558529    -1.11558529    -0.06760037
     0.38460261    -1.11790577    -1.11790577    -0.04447066
     0.38702149    -1.11926764    -1.11926764    -0.02130281
     0.38944038    -1.11966973    -1.11966973     0.00188331
     0.39185926    -1.11911169    -1.11911169     0.02506780
     0.39427815    -1.11759401    -1.11759401     0.04823081
     0.39669703    -1.11511798    -1.11511798     0.07135245
     0.39911591    -1.11168574    -1.11168574     0.09441291
     0.40153480    -1.10730021    -1.10730021     0.11739241
     0.40395368    -1.10196517    -1.10196517     0.14027125
     0.40637257    -1.09568518    -1.09568518     0.16302980
     0.40879145    -1.08846563    -1.08846563     0.18564855
     0.41121034    -1.08031272    -1.08031272     0.20810811
     0.41362922    -1.07123343    -1.07123343     0.23038921
     0.41604810    -1.06123556    -1.06123556     0.25247276
     0.41846699    -1.05032766    -1.05032766     0.27433980
     0.42088587    -1.03851910    -1.03851910     0.29597160
     0.42330476    -1.02582001    -1.02582001     0.31734960
     0.42572364    -1.01224126    -1.01224126     0.33845547
     0.42814253    -0.99779451    -0.99779451     0.35927111
     0.43056141    -0.98249215    -0.98249215     0.37977868
     0.43298029    -0.96634729    -0.96634729     0.39996058
     0.43539918    -0.94937378    -0.94937378     0.41979951
     0.43781806    -0.93158618    -0.93158618     0.43927846
     0.44023695    -0.91299973    -0.91299973     0.45838073
     0.44265583    -0.89363039    -0.89363039     0.47708993
     0.44507472    -0.87349474    -0.87349474     0.49539002
     0.44749360    -0.85261007    -0.85261007     0.51326532
     0.44991248    -0.83099428    -0.83099428     0.53070048
     0.45233137    -0.80866591    -0.80866591     0.54768057
     0.45475025    -0.78564410    -0.78564410     0.56419101
     0.45716914    -0.76194859    -0.76194859     0.58021766
     0.45958802    -0.73759971    -0.73759971     0.59574677
     0.46200691    -0.71261833    -0.71261833     0.61076502
     0.46442579    -0.68702588    -0.68702588     0.62525953
     0.46684468    -0.66084429    -0.66084429     0.63921788
     0.46926356    -0.63409603    -0.63409603     0.65262810
     0.47168244    -0.60680402    -0.60680402     0.66547868
     0.47410133    -0.57899168    -0.57899168     0.67775861
     0.47652021    -0.55068285    -0.55068285     0.68945736
     0.47893910    -0.52190180    -0.52190180     0.70056489
     0.48135798    -0.49267322    -0.49267322     0.71107169
     0.48377687    -0.46302217    -0.46302217     0.72096873
     0.48619575    -0.43297407    -0.43297407     0.73024754
     0.48861463    -0.40255469    -0.40255469     0.73890016
     0.49103352    -0.37179012    -0.37179012     0.74691916
     0.49345240    -0.34070674    -0.34070674     0.75429767
     0.49587129    -0.30933120    -0.30933120     0.76102937
     0.49829017    -0.27769040    -0.27769040     0.76710849
     0.50070906    -0.24581149    -0.24581149     0.77252980
     0.50312794    -0.21372179    -0.21372179     0.77728866
     0.50554682    -0.18144882    -0.18144882     0.78138099
     0.50796571    -0.14902026    -0.14902026     0.78480328
     0.51038459    -0.11646391    -0.11646391     0.78755259
     0.51280348    -0.08380769    -0.08380769     0.78962658
     0.51522236    -0.05107961    -0.05107961     0.79102345
     0.51764125    -0.01830772    -0.01830772     0.79174202
     0.52006013     0.01447986     0.01447986     0.79178166
     0.52247901     0.04725503     0.04725503     0.79114234
     0.52489790     0.07998967     0.07998967     0.78982461
     0.52731678     0.11265572     0.11265572     0.78782960
     0.52973567     0.14522517     0.14522517     0.78515903
     0.53215455     0.17767009     0.17767009     0.78181517
     0.53457344     0.20996266     0.20996266     0.77780090
     0.53699232     0.24207518     0.24207518     0.77311966
     0.53941120     0.27398012     0.27398012     0.76777547
     0.54183009     0.30565012     0.30565012     0.76177290
     0.54424897     0.33705802     0.33705802     0.75511710
     0.54666786     0.36817689     0.36817689     0.74781379
     0.54908674     0.39898005     0.39898005     0.73986923
     0.55150563     0.42944108     0.42944108     0.73129022
     0.55392451     0.45953386     0.45953386     0.72208412
     0.55634340     0.48923259     0.48923259     0.71225883
     0.55876228     0.51851180     0.51851180     0.70182277
     0.56118116     0.54734638     0.54734638     0.69078490
     0.56360005     0.57571160     0.57571160     0.67915467
     0.56601893     0.60358315     0.60358315     0.66694206
     0.56843782     0.63093713     0.63093713     0.65415755
     0.57085670     0.65775007     0.65775007     0.64081209
     0.57327559     0.68399898     0.68399898     0.62691713
     0.57569447     0.70966136     0.70966136     0.61248458
     0.57811335     0.73471520     0.73471520     0.59752683
     0.58053224     0.75913902     0.75913902     0.58205669
     0.58295112     0.78291187     0.78291187     0.56608743
     0.58537001     0.80601336     0.80601336     0.54963275
     0.58778889     0.82842370     0.82842370     0.53270675
     0.59020778     0.85012366     0.85012366     0.51532396
     0.59262666     0.87109462     0.87109462     0.49749927
     0.59504554     0.89131862     0.89131862     0.47924797
     0.59746443     0.91077831     0.91077831     0.46058571
     0.59988331     0.92945700     0.92945700     0.44152850
     0.60230220     0.94733867     0.94733867     0.42209267
     0.60472108     0.96440799     0.96440799     0.40229490
     0.60713997     0.98065033     0.98065033     0.38215215
     0.60955885     0.99605175     0.99605175     0.36168171
     0.61197773     1.01059905     1.01059905     0.34090112
     0.61439662     1.02427975     1.02427975     0.31982821
     0.61681550     1.03708213     1.03708213     0.29848104
     0.61923439     1.04899520     1.04899520     0.27687792
     0.62165327     1.06000875     1.06000875     0.25503738
     0.62407216     1.07011333     1.07011333     0.23297814
     0.62649104     1.07930029     1.07930029     0.21071912
     0.62890992     1.08756174     1.08756174     0.18827941
     0.63132881     1.09489059     1.09489059     0.16567825
     0.63374769     1.10128057     1.10128057     0.14293501
     0.63616658     1.10672619     1.10672619     0.12006921
     0.63858546     1.11122279     1.11122279     0.09710045
     0.64100435     1.11476651     1.11476651     0.07404843
     0.64342323     1.11735430     1.11735430     0.05093290
     0.64584212     1.11898396     1.11898396     0.02777370
     0.64826100     1.11965408     1.11965408     0.00459069
     0.65067988     1.11936409     1.11936409    -0.01859626
     0.65309877     1.11811423     1.11811423    -0.04176726
     0.65551765     1.11590559     1.11590559    -0.06490245
     0.65793654     1.11274004     1.11274004    -0.08798199
     0.66035542     1.10862032     1.10862032    -0.11098608
     0.66277431     1.10354994     1.10354994    -0.13389499
     0.66519319     1.09753327     1.09753327    -0.15668910
     0.66761207     1.09057545     1.09057545    -0.17934884
     0.67003096     1.08268245     1.08268245    -0.20185478
     0.67244984     1.07386105     1.07386105    -0.22418764
     0.67486873     1.06411880     1.06411880    -0.24632825
     0.67728761     1.05346407     1.05346407    -0.26825764
     0.67970650     1.04190598     1.04190598    -0.28995699
     0.68212538     1.02945444     1.02945444    -0.31140770
     0.68454426     1.01612015     1.01612015    -0.33259138
     0.68696315     1.00191452     1.00191452    -0.35348985
     0.68938203     0.98684975     0.98684975    -0.37408521
     0.69180092     0.97093874     0.97093874    -0.39435979
     0.69421980     0.95419515     0.95419515    -0.41429620
     0.69663869     0.93663333     0.93663333    -0.43387735
     0.69905757     0.91826834     0.91826834    -0.45308644
     0.70147645     0.89911592     0.89911592    -0.47190701
     0.70389534     0.87919251     0.87919251    -0.49032292
     0.70631422     0.85851519     0.85851519    -0.50831837
     0.70873311     0.83710168     0.83710168    -0.52587794
     0.71115199     0.81497035     0.81497035    -0.54298656
     0.71357088     0.79214018     0.79214018    -0.55962956
     0.71598976     0.76863074     0.76863074    -0.57579268
     0.71840864     0.74446220     0.74446220    -0.59146205
     0.72082753     0.71965527     0.71965527    -0.60662425
     0.72324641     0.69423124     0.69423124    -0.62126625
     0.72566530     0.66821189     0.66821189    -0.63537552
     0.72808418     0.64161955     0.64161955    -0.64893994
     0.73050307     0.61447702     0.61447702    -0.66194790
     0.73292195     0.58680757     0.58680757    -0.67438823
     0.73534084     0.55863492     0.55863492    -0.68625027
     0.73775972     0.52998325     0.52998325    -0.69752384
     0.74017860     0.50087711     0.50087711    -0.70819928
     0.74259749     0.47134146     0.47134146    -0.71826744
     0.74501637     0.44140163     0.44140163    -0.72771968
     0.74743526     0.41108330     0.41108330    -0.73654789
     0.74985414     0.38041246     0.38041246    -0.74474450
     0.75227303     0.34941542     0.34941542    -0.75230250
     0.75469191     0.31811875     0.31811875    -0.75921538
     0.75711079     0.28654929     0.28654929    -0.76547724
     0.75952968     0.25473411     0.25473411    -0.77108269
     0.76194856     0.22270050     0.22270050    -0.77602694
     0.76436745     0.19047592     0.19047592    -0.78030573
     0.76678633     0.15808800     0.15808800    -0.78391541
     0.76920522     0.12556453     0.12556453    -0.78685288
     0.77162410     0.09293338     0.09293338    -0.78911561
     0.77404298     0.06022254     0.06022254    -0.79070167
     0.77646187     0.02746006     0.02746006    -0.79160970
     0.77888075    -0.00532597    -0.00532597    -0.79183892
     0.78129964    -0.03810744    -0.03810744    -0.79138913
     0.78371852    -0.07085622    -0.07085622    -0.79026071
     0.78613741    -0.10354424    -0.10354424    -0.78845465
