#     time (fs)  |  E_x (eV/ang)  | E_y (eV/ang) | E_z (eV/ang)
     0.00000000     0.00000000     0.00000000     2.17655171
     0.00241888     0.05685916     0.00000000     2.17580891
     0.00483777     0.11367951     0.00000000     2.17358099
     0.00725665     0.17042227     0.00000000     2.16986949
     0.00967554     0.22704871     0.00000000     2.16467694
     0.01209442     0.28352017     0.00000000     2.15800687
     0.01451331     0.33979812     0.00000000     2.14986386
     0.01693219     0.39584413     0.00000000     2.14025344
     0.01935107     0.45161996     0.00000000     2.12918218
     0.02176996     0.50708754     0.00000000     2.11665765
     0.02418884     0.56220900     0.00000000     2.10268838
     0.02660773     0.61694672     0.00000000     2.08728391
     0.02902661     0.67126334     0.00000000     2.07045475
     0.03144550     0.72512179     0.00000000     2.05221240
     0.03386438     0.77848531     0.00000000     2.03256931
     0.03628326     0.83131746     0.00000000     2.01153887
     0.03870215     0.88358220     0.00000000     1.98913545
     0.04112103     0.93524384     0.00000000     1.96537434
     0.04353992     0.98626713     0.00000000     1.94027176
     0.04595880     1.03661724     0.00000000     1.91384483
     0.04837769     1.08625981     0.00000000     1.88611161
     0.05079657     1.13516094     0.00000000     1.85709101
     0.05321546     1.18328726     0.00000000     1.82680284
     0.05563434     1.23060593     0.00000000     1.79526778
     0.05805322     1.27708464     0.00000000     1.76250736
     0.06047211     1.32269167     0.00000000     1.72854393
     0.06289099     1.36739589     0.00000000     1.69340067
     0.06530988     1.41116679     0.00000000     1.65710158
     0.06772876     1.45397449     0.00000000     1.61967143
     0.07014765     1.49578978     0.00000000     1.58113576
     0.07256653     1.53658411     0.00000000     1.54152088
     0.07498541     1.57632964     0.00000000     1.50085383
     0.07740430     1.61499924     0.00000000     1.45916237
     0.07982318     1.65256651     0.00000000     1.41647495
     0.08224207     1.68900582     0.00000000     1.37282071
     0.08466095     1.72429229     0.00000000     1.32822944
     0.08707984     1.75840184     0.00000000     1.28273159
     0.08949872     1.79131118     0.00000000     1.23635820
     0.09191760     1.82299786     0.00000000     1.18914094
     0.09433649     1.85344024     0.00000000     1.14111201
     0.09675537     1.88261755     0.00000000     1.09230422
     0.09917426     1.91050987     0.00000000     1.04275087
     0.10159314     1.93709817     0.00000000     0.99248579
     0.10401203     1.96236429     0.00000000     0.94154328
     0.10643091     1.98629099     0.00000000     0.88995812
     0.10884979     2.00886194     0.00000000     0.83776552
     0.11126868     2.03006173     0.00000000     0.78500109
     0.11368756     2.04987590     0.00000000     0.73170086
     0.11610645     2.06829092     0.00000000     0.67790120
     0.11852533     2.08529421     0.00000000     0.62363884
     0.12094422     2.10087418     0.00000000     0.56895081
     0.12336310     2.11502019     0.00000000     0.51387445
     0.12578198     2.12772259     0.00000000     0.45844733
     0.12820087     2.13897270     0.00000000     0.40270730
     0.13061975     2.14876284     0.00000000     0.34669240
     0.13303864     2.15708634     0.00000000     0.29044086
     0.13545752     2.16393751     0.00000000     0.23399109
     0.13787641     2.16931167     0.00000000     0.17738160
     0.14029529     2.17320516     0.00000000     0.12065104
     0.14271418     2.17561533     0.00000000     0.06383812
     0.14513306     2.17654052     0.00000000     0.00698164
     0.14755194     2.17598010     0.00000000    -0.04987961
     0.14997083     2.17393445     0.00000000    -0.10670682
     0.15238971     2.17040498     0.00000000    -0.16346119
     0.15480860     2.16539410     0.00000000    -0.22010399
     0.15722748     2.15890521     0.00000000    -0.27659656
     0.15964637     2.15094275     0.00000000    -0.33290034
     0.16206525     2.14151216     0.00000000    -0.38897689
     0.16448413     2.13061987     0.00000000    -0.44478795
     0.16690302     2.11827332     0.00000000    -0.50029541
     0.16932190     2.10448093     0.00000000    -0.55546139
     0.17174079     2.08925212     0.00000000    -0.61024825
     0.17415967     2.07259729     0.00000000    -0.66461857
     0.17657856     2.05452779     0.00000000    -0.71853526
     0.17899744     2.03505597     0.00000000    -0.77196151
     0.18141632     2.01419511     0.00000000    -0.82486085
     0.18383521     1.99195945     0.00000000    -0.87719718
     0.18625409     1.96836418     0.00000000    -0.92893478
     0.18867298     1.94342539     0.00000000    -0.98003833
     0.19109186     1.91716010     0.00000000    -1.03047295
     0.19351075     1.88958626     0.00000000    -1.08020421
     0.19592963     1.86072266     0.00000000    -1.12919818
     0.19834851     1.83058903     0.00000000    -1.17742141
     0.20076740     1.79920591     0.00000000    -1.22484099
     0.20318628     1.76659475     0.00000000    -1.27142454
     0.20560517     1.73277778     0.00000000    -1.31714028
     0.20802405     1.69777810     0.00000000    -1.36195700
     0.21044294     1.66161960     0.00000000    -1.40584411
     0.21286182     1.62432695     0.00000000    -1.44877166
     0.21528071     1.58592561     0.00000000    -1.49071034
     0.21769959     1.54644179     0.00000000    -1.53163153
     0.22011847     1.50590244     0.00000000    -1.57150730
     0.22253736     1.46433523     0.00000000    -1.61031043
     0.22495624     1.42176853     0.00000000    -1.64801444
     0.22737513     1.37823140     0.00000000    -1.68459359
     0.22979401     1.33375355     0.00000000    -1.72002291
     0.23221290     1.28836535     0.00000000    -1.75427823
     0.23463178     1.24209776     0.00000000    -1.78733615
     0.23705066     1.19498237     0.00000000    -1.81917412
     0.23946955     1.14705135     0.00000000    -1.84977041
     0.24188843     1.09833740     0.00000000    -1.87910413
     0.24430732     1.04887378     0.00000000    -1.90715525
     0.24672620     0.99869424     0.00000000    -1.93390465
     0.24914509     0.94783304     0.00000000    -1.95933404
     0.25156397     0.89632489     0.00000000    -1.98342609
     0.25398285     0.84420495     0.00000000    -2.00616434
     0.25640174     0.79150880     0.00000000    -2.02753327
     0.25882062     0.73827240     0.00000000    -2.04751831
     0.26123951     0.68453209     0.00000000    -2.06610580
     0.26365839     0.63032455     0.00000000    -2.08328306
     0.26607728     0.57568678     0.00000000    -2.09903837
     0.26849616     0.52065607     0.00000000    -2.11336098
     0.27091504     0.46526998     0.00000000    -2.12624110
     0.27333393     0.40956633     0.00000000    -2.13766994
     0.27575281     0.35358312     0.00000000    -2.14763971
     0.27817170     0.29735857     0.00000000    -2.15614360
     0.28059058     0.24093106     0.00000000    -2.16317581
     0.28300947     0.18433910     0.00000000    -2.16873153
     0.28542835     0.12762132     0.00000000    -2.17280698
     0.28784723     0.07081643     0.00000000    -2.17539936
     0.29026612     0.01396320     0.00000000    -2.17650692
     0.29268500    -0.04289955    -0.00000000    -2.17612890
     0.29510389    -0.09973303    -0.00000000    -2.17426555
     0.29752277    -0.15649843    -0.00000000    -2.17091815
     0.29994166    -0.21315701    -0.00000000    -2.16608898
     0.30236054    -0.26967010    -0.00000000    -2.15978133
     0.30477943    -0.32599913    -0.00000000    -2.15199952
     0.30719831    -0.38210565    -0.00000000    -2.14274885
     0.30961719    -0.43795135    -0.00000000    -2.13203564
     0.31203608    -0.49349813    -0.00000000    -2.11986720
     0.31445496    -0.54870808    -0.00000000    -2.10625184
     0.31687385    -0.60354350    -0.00000000    -2.09119884
     0.31929273    -0.65796697    -0.00000000    -2.07471849
     0.32171162    -0.71194134    -0.00000000    -2.05682204
     0.32413050    -0.76542977    -0.00000000    -2.03752169
     0.32654938    -0.81839576    -0.00000000    -2.01683062
     0.32896827    -0.87080314    -0.00000000    -1.99476296
     0.33138715    -0.92261616    -0.00000000    -1.97133376
     0.33380604    -0.97379944    -0.00000000    -1.94655902
     0.33622492    -1.02431805    -0.00000000    -1.92045565
     0.33864381    -1.07413751    -0.00000000    -1.89304146
     0.34106269    -1.12322381    -0.00000000    -1.86433517
     0.34348157    -1.17154345    -0.00000000    -1.83435638
     0.34590046    -1.21906344    -0.00000000    -1.80312553
     0.34831934    -1.26575137    -0.00000000    -1.77066395
     0.35073823    -1.31157534    -0.00000000    -1.73699380
     0.35315711    -1.35650410    -0.00000000    -1.70213806
     0.35557600    -1.40050697    -0.00000000    -1.66612052
     0.35799488    -1.44355392    -0.00000000    -1.62896576
     0.36041376    -1.48561556    -0.00000000    -1.59069914
     0.36283265    -1.52666319    -0.00000000    -1.55134679
     0.36525153    -1.56666879    -0.00000000    -1.51093555
     0.36767042    -1.60560506    -0.00000000    -1.46949303
     0.37008930    -1.64344541    -0.00000000    -1.42704749
     0.37250819    -1.68016403    -0.00000000    -1.38362792
     0.37492707    -1.71573584    -0.00000000    -1.33926394
     0.37734595    -1.75013656    -0.00000000    -1.29398585
     0.37976484    -1.78334273    -0.00000000    -1.24782454
     0.38218372    -1.81533167    -0.00000000    -1.20081152
     0.38460261    -1.84608154    -0.00000000    -1.15297888
     0.38702149    -1.87557137    -0.00000000    -1.10435928
     0.38944038    -1.90378101    -0.00000000    -1.05498589
     0.39185926    -1.93069122    -0.00000000    -1.00489241
     0.39427815    -1.95628364    -0.00000000    -0.95411304
     0.39669703    -1.98054078    -0.00000000    -0.90268244
     0.39911591    -2.00344610    -0.00000000    -0.85063570
     0.40153480    -2.02498395    -0.00000000    -0.79800837
     0.40395368    -2.04513965    -0.00000000    -0.74483634
     0.40637257    -2.06389942    -0.00000000    -0.69115593
     0.40879145    -2.08125048    -0.00000000    -0.63700377
     0.41121034    -2.09718097    -0.00000000    -0.58241682
     0.41362922    -2.11168002    -0.00000000    -0.52743233
     0.41604810    -2.12473773    -0.00000000    -0.47208785
     0.41846699    -2.13634520    -0.00000000    -0.41642114
     0.42088587    -2.14649449    -0.00000000    -0.36047020
     0.42330476    -2.15517869    -0.00000000    -0.30427322
     0.42572364    -2.16239186    -0.00000000    -0.24786855
     0.42814253    -2.16812908    -0.00000000    -0.19129470
     0.43056141    -2.17238643    -0.00000000    -0.13459029
     0.43298029    -2.17516102    -0.00000000    -0.07779401
     0.43539918    -2.17645094    -0.00000000    -0.02094463
     0.43781806    -2.17625531     0.00000000     0.03591905
     0.44023695    -2.17457427     0.00000000     0.09275821
     0.44265583    -2.17140897     0.00000000     0.14953406
     0.44507472    -2.16676157     0.00000000     0.20620784
     0.44749360    -2.16063523     0.00000000     0.26274087
     0.44991248    -2.15303414     0.00000000     0.31909457
     0.45233137    -2.14396349     0.00000000     0.37523047
     0.45475025    -2.13342947     0.00000000     0.43111025
     0.45716914    -2.12143927     0.00000000     0.48669578
     0.45958802    -2.10800107     0.00000000     0.54194912
     0.46200691    -2.09312405     0.00000000     0.59683254
     0.46442579    -2.07681835     0.00000000     0.65130859
     0.46684468    -2.05909512     0.00000000     0.70534009
     0.46926356    -2.03996644     0.00000000     0.75889016
     0.47168244    -2.01944538     0.00000000     0.81192224
     0.47410133    -1.99754593     0.00000000     0.86440014
     0.47652021    -1.97428306     0.00000000     0.91628804
     0.47893910    -1.94967262     0.00000000     0.96755053
     0.48135798    -1.92373143     0.00000000     1.01815261
     0.48377687    -1.89647719     0.00000000     1.06805975
     0.48619575    -1.86792850     0.00000000     1.11723787
     0.48861463    -1.83810485     0.00000000     1.16565343
     0.49103352    -1.80702660     0.00000000     1.21327336
     0.49345240    -1.77471495     0.00000000     1.26006517
     0.49587129    -1.74119196     0.00000000     1.30599691
     0.49829017    -1.70648051     0.00000000     1.35103724
     0.50070906    -1.67060430     0.00000000     1.39515542
     0.50312794    -1.63358781     0.00000000     1.43832132
     0.50554682    -1.59545631     0.00000000     1.48050550
     0.50796571    -1.55623582     0.00000000     1.52167915
     0.51038459    -1.51595312     0.00000000     1.56181417
     0.51280348    -1.47463570     0.00000000     1.60088317
     0.51522236    -1.43231176     0.00000000     1.63885947
     0.51764125    -1.38901019     0.00000000     1.67571717
     0.52006013    -1.34476055     0.00000000     1.71143111
     0.52247901    -1.29959303     0.00000000     1.74597689
     0.52489790    -1.25353847     0.00000000     1.77933096
     0.52731678    -1.20662831     0.00000000     1.81147053
     0.52973567    -1.15889455     0.00000000     1.84237368
     0.53215455    -1.11036979     0.00000000     1.87201931
     0.53457344    -1.06108714     0.00000000     1.90038718
     0.53699232    -1.01108024     0.00000000     1.92745794
     0.53941120    -0.96038322     0.00000000     1.95321310
     0.54183009    -0.90903069     0.00000000     1.97763509
     0.54424897    -0.85705770     0.00000000     2.00070724
     0.54666786    -0.80449972     0.00000000     2.02241380
     0.54908674    -0.75139263     0.00000000     2.04273994
     0.55150563    -0.69777266     0.00000000     2.06167181
     0.55392451    -0.64367644     0.00000000     2.07919648
     0.55634340    -0.58914086     0.00000000     2.09530198
     0.55876228    -0.53420317     0.00000000     2.10997733
     0.56118116    -0.47890085     0.00000000     2.12321250
     0.56360005    -0.42327166     0.00000000     2.13499847
     0.56601893    -0.36735357     0.00000000     2.14532718
     0.56843782    -0.31118473     0.00000000     2.15419159
     0.57085670    -0.25480349     0.00000000     2.16158565
     0.57327559    -0.19824834     0.00000000     2.16750431
     0.57569447    -0.14155787     0.00000000     2.17194354
     0.57811335    -0.08477078     0.00000000     2.17490029
     0.58053224    -0.02792583     0.00000000     2.17637256
     0.58295112     0.02893818     0.00000000     2.17635933
     0.58537001     0.08578244     0.00000000     2.17486062
     0.58778889     0.14256815     0.00000000     2.17187746
     0.59020778     0.19925654     0.00000000     2.16741186
     0.59262666     0.25580894     0.00000000     2.16146690
     0.59504554     0.31218673     0.00000000     2.15404661
     0.59746443     0.36835143     0.00000000     2.14515607
     0.59988331     0.42426472     0.00000000     2.13480135
     0.60230220     0.47988842     0.00000000     2.12298951
     0.60472108     0.53518458     0.00000000     2.10972861
     0.60713997     0.59011544     0.00000000     2.09502772
     0.60955885     0.64464351     0.00000000     2.07889685
     0.61197773     0.69873158     0.00000000     2.06134702
     0.61439662     0.75234273     0.00000000     2.04239021
     0.61681550     0.80544037     0.00000000     2.02203936
     0.61923439     0.85798825     0.00000000     2.00030836
     0.62165327     0.90995050     0.00000000     1.97721204
     0.62407216     0.96129166     0.00000000     1.95276616
     0.62649104     1.01197670     0.00000000     1.92698742
     0.62890992     1.06197100     0.00000000     1.89989341
     0.63132881     1.11124045     0.00000000     1.87150261
     0.63374769     1.15975142     0.00000000     1.84183442
     0.63616658     1.20747079     0.00000000     1.81090907
     0.63858546     1.25436600     0.00000000     1.77874768
     0.64100435     1.30040504     0.00000000     1.74537219
     0.64342323     1.34555648     0.00000000     1.71080540
     0.64584212     1.38978951     0.00000000     1.67507089
     0.64826100     1.43307393     0.00000000     1.63819305
     0.65067988     1.47538020     0.00000000     1.60019706
     0.65309877     1.51667944     0.00000000     1.56110885
     0.65551765     1.55694347     0.00000000     1.52095509
     0.65793654     1.59614480     0.00000000     1.47976320
     0.66035542     1.63425667     0.00000000     1.43756130
     0.66277431     1.67125308     0.00000000     1.39437818
     0.66519319     1.70710877     0.00000000     1.35024332
     0.66761207     1.74179926     0.00000000     1.30518685
     0.67003096     1.77530088     0.00000000     1.25923951
     0.67244984     1.80759076     0.00000000     1.21243268
     0.67486873     1.83864686     0.00000000     1.16479830
     0.67728761     1.86844799     0.00000000     1.11636888
     0.67970650     1.89697380     0.00000000     1.06717748
     0.68212538     1.92420482     0.00000000     1.01725767
     0.68454426     1.95012247     0.00000000     0.96664353
     0.68696315     1.97470906     0.00000000     0.91536960
     0.68938203     1.99794780     0.00000000     0.86347088
     0.69180092     2.01982283     0.00000000     0.81098280
     0.69421980     2.04031922     0.00000000     0.75794118
     0.69663869     2.05942299     0.00000000     0.70438222
     0.69905757     2.07712109     0.00000000     0.65034248
     0.70147645     2.09340144     0.00000000     0.59585885
     0.70389534     2.10825293     0.00000000     0.54096851
     0.70631422     2.12166543     0.00000000     0.48570893
     0.70873311     2.13362977     0.00000000     0.43011783
     0.71115199     2.14413780     0.00000000     0.37423316
     0.71357088     2.15318234     0.00000000     0.31809304
     0.71598976     2.16075721     0.00000000     0.26173581
     0.71840864     2.16685725     0.00000000     0.20519994
     0.72082753     2.17147829     0.00000000     0.14852400
     0.72324641     2.17461719     0.00000000     0.09174669
     0.72566530     2.17627178     0.00000000     0.03490675
     0.72808418     2.17644096     0.00000000    -0.02195701
     0.73050307     2.17512460     0.00000000    -0.07880578
     0.73292195     2.17232359     0.00000000    -0.13560077
     0.73534084     2.16803986     0.00000000    -0.19230320
     0.73775972     2.16227633     0.00000000    -0.24887437
     0.74017860     2.15503692     0.00000000    -0.30527567
     0.74259749     2.14632658     0.00000000    -0.36146861
     0.74501637     2.13615126     0.00000000    -0.41741482
     0.74743526     2.12451791     0.00000000    -0.47307613
     0.74985414     2.11143445     0.00000000    -0.52841453
     0.75227303     2.09690983     0.00000000    -0.58339227
     0.75469191     2.08095395     0.00000000    -0.63797180
     0.75711079     2.06357771     0.00000000    -0.69211589
     0.75952968     2.04479296     0.00000000    -0.74578757
     0.76194856     2.02461254     0.00000000    -0.79895021
     0.76436745     2.00305020     0.00000000    -0.85156752
     0.76678633     1.98012068     0.00000000    -0.90360360
     0.76920522     1.95583962     0.00000000    -0.95502291
     0.77162410     1.93022359     0.00000000    -1.00579037
     0.77404298     1.90329008     0.00000000    -1.05587132
     0.77646187     1.87505747     0.00000000    -1.10523159
     0.77888075     1.84554503     0.00000000    -1.15383747
     0.78129964     1.81477291     0.00000000    -1.20165580
     0.78371852     1.78276210     0.00000000    -1.24865393
     0.78613741     1.74953447     0.00000000    -1.29479979
