#           time (fs)    |     mu_x (e.angstrom)   |     mu_y (e.angstrom)   |     mu_z (e.angstrom)   |
        0.000000000000000       -0.000000000000000       -0.000000000000000        0.000000000000000
        0.002418884326505        0.000000000031814        0.000000000019431       -0.000003268476524
        0.004837768653010        0.000000000127841        0.000000000078248       -0.000006532911073
        0.007256652979515        0.000000000285515        0.000000000174630       -0.000009745318361
        0.009675537306020       -0.000000000038903       -0.000000000023811        0.000000994265154
        0.012094421632525       -0.000000000579206       -0.000000000354730        0.000011826189449
        0.014513305959030       -0.000000002952790       -0.000000001807335        0.000050320857795
        0.016932190285535       -0.000000006088355       -0.000000003726840        0.000088926755906
        0.019351074612040       -0.000000013175578       -0.000000008064469        0.000168439824811
        0.021769958938545       -0.000000021827502       -0.000000013360502        0.000248053216512
        0.024188843265050       -0.000000037257213       -0.000000022804286        0.000381130792125
        0.026607727591555       -0.000000055294008       -0.000000033844682        0.000514260343869
        0.029026611918060       -0.000000083562702       -0.000000051146816        0.000712514172121
        0.031445496244565       -0.000000115698867       -0.000000070817221        0.000910727390147
        0.033864380571070       -0.000000162050789       -0.000000099187579        0.001184633468424
        0.036283264897575       -0.000000213722634       -0.000000130815450        0.001458356254131
        0.038702149224080       -0.000000284009408       -0.000000173835665        0.001817072392688
        0.041121033550585       -0.000000361230895       -0.000000221102026        0.002175407630302
        0.043539917877090       -0.000000461753813       -0.000000282628959        0.002626612834985
        0.045958802203595       -0.000000570955587       -0.000000349469884        0.003077180864951
        0.048377686530100       -0.000000708294057       -0.000000433530624        0.003626939052425
        0.050796570856605       -0.000000856149244       -0.000000524030604        0.004175742522787
        0.053215455183110       -0.000001036979196       -0.000000634711316        0.004828392680604
        0.055634339509615       -0.000001230219786       -0.000000752990874        0.005479707869338
        0.058053223836120       -0.000001461126066       -0.000000894321973        0.006237782342084
        0.060472108162625       -0.000001706353954       -0.000001044422008        0.006994078612008
        0.062890992489130       -0.000001993640858       -0.000001220262189        0.007858250738409
        0.065309876815635       -0.000002297137712       -0.000001406027592        0.008720139329940
        0.067728761142140       -0.000002646641887       -0.000001619949317        0.009689201181281
        0.070147645468645       -0.000003014182063       -0.000001844914467        0.010655414074187
        0.072566529795150       -0.000003431091955       -0.000002100093450        0.011726284559584
        0.074985414121655       -0.000003867762651       -0.000002367372126        0.012793683650692
        0.077404298448160       -0.000004356448557       -0.000002666483319        0.013961446767324
        0.079823182774665       -0.000004866481235       -0.000002978665519        0.015125063124705
        0.082242067101170       -0.000005430339842       -0.000003323787952        0.016383035649038
        0.084660951427675       -0.000006016956768       -0.000003682845963        0.017636138122480
        0.087079835754180       -0.000006658273733       -0.000004075378639        0.018975965569622
        0.089498720080685       -0.000007323553170       -0.000004482584518        0.020310157570007
        0.091917604407190       -0.000008043386995       -0.000004923175339        0.021721936800294
        0.094336488733695       -0.000008788150226       -0.000005379031763        0.023127279614380
        0.096755373060200       -0.000009586240215       -0.000005867521187        0.024599706046292
        0.099174257386705       -0.000010409963146       -0.000006371707348        0.026064866635727
        0.101593141713210       -0.000011284663768       -0.000006907088223        0.027585403639112
        0.104012026039715       -0.000012185415368       -0.000007458422142        0.029097824489824
        0.106430910366220       -0.000013133658827       -0.000008038816792        0.030652892189286
        0.108849794692725       -0.000014108068123       -0.000008635235120        0.032198980435885
        0.111268679019230       -0.000015125356359       -0.000009257890451        0.033774160856480
        0.113687563345735       -0.000016168609139       -0.000009896446448        0.035339493611339
        0.116106447672240       -0.000017249035881       -0.000010557747447        0.036919748851956
        0.118525331998745       -0.000018354901651       -0.000011234627484        0.038489291424585
        0.120944216325250       -0.000019491204557       -0.000011930129132        0.040059191352364
        0.123363100651755       -0.000020652093693       -0.000012640687668        0.041617524855284
        0.125781984978260       -0.000021835735965       -0.000013365164897        0.043161480679647
        0.128200869304765       -0.000023042786378       -0.000014103977530        0.044693035384801
        0.130619753631270       -0.000024264066671       -0.000014851492489        0.046195535394133
        0.133038637957775       -0.000025507258705       -0.000015612426280        0.047684826130569
        0.135457522284280       -0.000026755447528       -0.000016376411828        0.049130669858728
        0.137876406610785       -0.000028023745225       -0.000017152711770        0.050562529728602
        0.140295290937290       -0.000029287245510       -0.000017926069751        0.051937056862250
        0.142714175263795       -0.000030568761824       -0.000018710459894        0.053296865597752
        0.145133059590300       -0.000031835290811       -0.000019485672463        0.054586176037564
        0.147551943916805       -0.000033117473864       -0.000020270469919        0.055860079424955
        0.149970828243310       -0.000034374262995       -0.000021039721894        0.057051241072055
        0.152389712569815       -0.000035644099985       -0.000021816961645        0.058226358028394
        0.154808596896320       -0.000036878109118       -0.000022572271614        0.059307599078762
        0.157227481222825       -0.000038122344133       -0.000023333839840        0.060372213179177
        0.159646365549330       -0.000039320486037       -0.000024067197569        0.061333095969577
        0.162065249875835       -0.000040525847694       -0.000024804970981        0.062276828484111
        0.164484134202340       -0.000041675218561       -0.000025508478501        0.063108402238627
        0.166903018528845       -0.000042828653146       -0.000026214467042        0.063922364043430
        0.169321902855350       -0.000043916764668       -0.000026880480698        0.064617294214867
        0.171740787181855       -0.000045005670301       -0.000027546970877        0.065294214287477
        0.174159671508360       -0.000046020678786       -0.000028168241555        0.065846886566968
        0.176578555834865       -0.000047033136047       -0.000028787937612        0.066381215154039
        0.178997440161370       -0.000047964064048       -0.000029357746395        0.066787812628916
        0.181416324487875       -0.000048889058525       -0.000029923906518        0.067175797580762
        0.183835208814380       -0.000049726004531       -0.000030436193026        0.067434349948682
        0.186254093140885       -0.000050553636841       -0.000030942757907        0.067674085141973
        0.188672977467390       -0.000051287968774       -0.000031392238734        0.067784489331539
        0.191091861793895       -0.000052009647785       -0.000031833949836        0.067875934542622
        0.193510746120400       -0.000052634176289       -0.000032216224608        0.067839946540442
        0.195929630446905       -0.000053242791548       -0.000032588729710        0.067784918580166
        0.198348514773410       -0.000053751919388       -0.000032900372528        0.067606116714427
        0.200767399099915       -0.000054241989100       -0.000033200316300        0.067408252084054
        0.203186283426420       -0.000054631833402       -0.000033438950562        0.067091972458389
        0.205605167752925       -0.000054999624711       -0.000033664048187        0.066756662228384
        0.208024052079430       -0.000055268109256       -0.000033828403072        0.066309907430189
        0.210442936405935       -0.000055511728069       -0.000033977495231        0.065844205472541
        0.212861820732440       -0.000055658643354       -0.000034067442466        0.065275528090656
        0.215280705058945       -0.000055778091492       -0.000034140530314        0.064688034204520
        0.217699589385450       -0.000055805120887       -0.000034157100178        0.064007397075939
        0.220118473711955       -0.000055802318909       -0.000034155359318        0.063308116929620
        0.222537358038460       -0.000055713029818       -0.000034100735240        0.062526732388087
        0.224956242364965       -0.000055591804513       -0.000034026508062        0.061726916552015
        0.227375126691470       -0.000055391604114       -0.000033903999526        0.060857067267660
        0.229794011017975       -0.000055157640280       -0.000033760765696        0.059969031927811
        0.232212895344480       -0.000054853696071       -0.000033574759613        0.059023876201771
        0.234631779670985       -0.000054514452868       -0.000033367084869        0.058060808416349
        0.237050663997490       -0.000054115578897       -0.000033122975944        0.057054173023569
        0.239469548323995       -0.000053680171741       -0.000032856439803        0.056029923613651
        0.241888432650500       -0.000053196682053       -0.000032560540836        0.054976087467450
        0.244307316977005       -0.000052675731638       -0.000032241644184        0.053904954811349
        0.246726201303510       -0.000052119263118       -0.000031901077642        0.052818426852239
        0.249145085630015       -0.000051524713819       -0.000031537131573        0.051714934981053
        0.251563969956520       -0.000050908021187       -0.000031159704112        0.050610229767900
        0.253982854283025       -0.000050252931668       -0.000030758701767        0.049488904234127
        0.256401738609530       -0.000049589657950       -0.000030352763748        0.048380318737004
        0.258820622936035       -0.000048887967374       -0.000029923237209        0.047255463748317
        0.261239507262540       -0.000048192393665       -0.000029497529541        0.046156858809134
        0.263658391589045       -0.000047458667390       -0.000029048394169        0.045042339085098
        0.266077275915550       -0.000046745446177       -0.000028611885083        0.043966928924865
        0.268496160242055       -0.000045994605251       -0.000028152273953        0.042875959646318
        0.270915044568560       -0.000045278481902       -0.000027713988539        0.041836112658241
        0.273333928895065       -0.000044525521043       -0.000027253079808        0.040781060738578
        0.275752813221570       -0.000043821048375       -0.000026821925312        0.039788114616388
        0.278171697548075       -0.000043080747386       -0.000026368765582        0.038780314333545
        0.280590581874580       -0.000042401998410       -0.000025953355589        0.037844408347508
        0.283009466201085       -0.000041688632167       -0.000025516682392        0.036893994138051
        0.285428350527590       -0.000041048916219       -0.000025125163078        0.036023921091085
        0.287847234854095       -0.000040375968487       -0.000024713229705        0.035139680027421
        0.290266119180600       -0.000039787555952       -0.000024353111353        0.034342760104980
        0.292685003507105       -0.000039167442264       -0.000023973517232        0.033532006257948
        0.295103887833610       -0.000038641303047       -0.000023651514157        0.032813984633277
        0.297522772160115       -0.000038085107815       -0.000023311043940        0.032082457170470
        0.299941656486620       -0.000037630668505       -0.000023032925855        0.031447426847137
        0.302360540813125       -0.000037147901325       -0.000022737400255        0.030799213338059
        0.304779425139630       -0.000036772825749       -0.000022507857958        0.030249564310668
        0.307198309466135       -0.000036371201602       -0.000022261999215        0.029687050309561
        0.309617193792640       -0.000036081199109       -0.000022084527241        0.029223445707762
        0.312036078119145       -0.000035766446784       -0.000021891841859        0.028747291270184
        0.314454962445650       -0.000035565112157       -0.000021768640497        0.028368670727431
        0.316873846772155       -0.000035340814800       -0.000021631321646        0.027977814094256
        0.319292731098660       -0.000035229503184       -0.000021563220382        0.027681424158015
        0.321711615425165       -0.000035096974324       -0.000021482072021        0.027373112417343
        0.324130499751670       -0.000035074713994       -0.000021468476144        0.027154563398609
        0.326549384078175       -0.000035032911849       -0.000021442860566        0.026924409518893
        0.328968268404680       -0.000035096356996       -0.000021481722267        0.026777757772467
        0.331387152731185       -0.000035141839209       -0.000021509532398        0.026619822995657
        0.333806037057690       -0.000035285264254       -0.000021597347289        0.026537677235152
        0.336224921384195       -0.000035412184529       -0.000021675004632        0.026444577433096
        0.338643805710700       -0.000035627520774       -0.000021806834173        0.026418227322020
        0.341062690037205       -0.000035827668177       -0.000021929312864        0.026381261558692
        0.343481574363710       -0.000036104582866       -0.000022098832750        0.026400826486493
        0.345900458690215       -0.000036367463821       -0.000022259709753        0.026410125698001
        0.348319343016720       -0.000036693480952       -0.000022459283861        0.026464721352774
        0.350738227343225       -0.000037006443227       -0.000022650814858        0.026509414761637
        0.353157111669730       -0.000037367104735       -0.000022871593897        0.026587334853118
        0.355575995996235       -0.000037715501983       -0.000023084814002        0.026655731476800
        0.357994880322740       -0.000038094567190       -0.000023316857586        0.026744641748017
        0.360413764649245       -0.000038461961888       -0.000023541705573        0.026824424147673
        0.362832648975750       -0.000038841642441       -0.000023774126017        0.026911565643769
        0.365251533302255       -0.000039210044411       -0.000023999590308        0.026989992890351
        0.367670417628760       -0.000039571271288       -0.000024220716059        0.027062391330702
        0.370089301955265       -0.000039921408309       -0.000024435000368        0.027126508043758
        0.372508186281770       -0.000040244126892       -0.000024632556600        0.027171186069694
        0.374927070608275       -0.000040555743353       -0.000024823262738        0.027208034310859
        0.377345954934780       -0.000040819232018       -0.000024984566354        0.027212223356660
        0.379764839261285       -0.000041071411032       -0.000025138891390        0.027209054135169
        0.382183723587790       -0.000041254618276       -0.000025251057373        0.027160402694318
        0.384602607914295       -0.000041426122208       -0.000025356002063        0.027104883866001
        0.387021492240800       -0.000041508016951       -0.000025406157876        0.026991658996951
        0.389440376567305       -0.000041577640944       -0.000025448743060        0.026872076409989
        0.391859260893810       -0.000041537570337       -0.000025424247658        0.026683355444580
        0.394278145220315       -0.000041484503150       -0.000025391735116        0.026488804303514
        0.396697029546820       -0.000041302552045       -0.000025280398966        0.026214653884346
        0.399115913873325       -0.000041106738297       -0.000025160513142        0.025935217466216
        0.401534798199830       -0.000040764084409       -0.000024950815610        0.025566857244185
        0.403953682526335       -0.000040406582230       -0.000024731962525        0.025193770304614
        0.406372566852840       -0.000039885841031       -0.000024413262978        0.024723718871061
        0.408791451179345       -0.000039349169128       -0.000024084742662        0.024249513320437
        0.411210335505850       -0.000038634722590       -0.000023647481687        0.023671714226326
        0.413629219832355       -0.000037903190820       -0.000023199690510        0.023090344933125
        0.416048104158860       -0.000036981494329       -0.000022635577769        0.022400270956058
        0.418466988485365       -0.000036041512069       -0.000022060197190        0.021707219841778
        0.420885872811870       -0.000034901374105       -0.000021362382610        0.020901953995896
        0.423304757138375       -0.000033741731003       -0.000020652551015        0.020094310919318
        0.425723641464880       -0.000032374560565       -0.000019815776230        0.019172603058298
        0.428142525791385       -0.000030986674644       -0.000018966240787        0.018249122340953
        0.430561410117890       -0.000029386691858       -0.000017986968059        0.017211420575017
        0.432980294444395       -0.000027764820400       -0.000016994213791        0.016172552389566
        0.435399178770900       -0.000025929226316       -0.000015870729932        0.015021008918264
        0.437818063097405       -0.000024070635523       -0.000014733083564        0.013868905141413
        0.440236947423910       -0.000021999737685       -0.000013465576805        0.012607356489234
        0.442655831750415       -0.000019904827730       -0.000012183283292        0.011345851005222
        0.445074716076920       -0.000017602118828       -0.000010773891427        0.009979773031003
        0.447493600403425       -0.000015274501592       -0.000009349161537        0.008614336854825
        0.449912484729930       -0.000012746689205       -0.000007801990132        0.007150775282881
        0.452331369056435       -0.000010193216739       -0.000006239017861        0.005688447248473
        0.454750253382940       -0.000007450202972       -0.000004560127790        0.004135924833511
        0.457169137709445       -0.000004680945506       -0.000002865076900        0.002585218955555
        0.459588022035950       -0.000001735756113       -0.000001062440973        0.000953620739520
        0.462006906362455        0.000001236070764        0.000000756599591       -0.000675588297238
        0.464425790688960        0.000004367407352        0.000002673170674       -0.002375149855556
        0.466844675015465        0.000007525565906        0.000004606262195       -0.004071761303543
        0.469263559341970        0.000010824188413        0.000006625223788       -0.005827099250767
        0.471682443668475        0.000014149591090        0.000008660683263       -0.007578938933623
