#     time (fs)  |  E_x (eV/ang)  | E_y (eV/ang) | E_z (eV/ang)
     0.00000000     0.00000000     0.00000000     1.01021002
     0.00241888     0.06732140     0.06732140     1.00908747
     0.00483777     0.13449318     0.13449318     1.00572230
     0.00725665     0.20136606     0.20136606     1.00012200
     0.00967554     0.26779142     0.26779142     0.99229901
     0.01209442     0.33362163     0.33362163     0.98227072
     0.01451331     0.39871040     0.39871040     0.97005942
     0.01693219     0.46291308     0.46291308     0.95569224
     0.01935107     0.52608696     0.52608696     0.93920112
     0.02176996     0.58809166     0.58809166     0.92062269
     0.02418884     0.64878938     0.64878938     0.89999827
     0.02660773     0.70804521     0.70804521     0.87737367
     0.02902661     0.76572748     0.76572748     0.85279918
     0.03144550     0.82170798     0.82170798     0.82632941
     0.03386438     0.87586230     0.87586230     0.79802320
     0.03628326     0.92807009     0.92807009     0.76794345
     0.03870215     0.97821532     0.97821532     0.73615701
     0.04112103     1.02618655     1.02618655     0.70273452
     0.04353992     1.07187717     1.07187717     0.66775026
     0.04595880     1.11518563     1.11518563     0.63128199
     0.04837769     1.15601568     1.15601568     0.59341074
     0.05079657     1.19427659     1.19427659     0.55422068
     0.05321546     1.22988331     1.22988331     0.51379892
     0.05563434     1.26275673     1.26275673     0.47223528
     0.05805322     1.29282377     1.29282377     0.42962214
     0.06047211     1.32001762     1.32001762     0.38605420
     0.06289099     1.34427784     1.34427784     0.34162828
     0.06530988     1.36555051     1.36555051     0.29644313
     0.06772876     1.38378836     1.38378836     0.25059916
     0.07014765     1.39895086     1.39895086     0.20419824
     0.07256653     1.41100431     1.41100431     0.15734352
     0.07498541     1.41992192     1.41992192     0.11013911
     0.07740430     1.42568387     1.42568387     0.06268993
     0.07982318     1.42827736     1.42827736     0.01510143
     0.08224207     1.42769662     1.42769662    -0.03252064
     0.08466095     1.42394294     1.42394294    -0.08007043
     0.08707984     1.41702467     1.41702467    -0.12744227
     0.08949872     1.40695718     1.40695718    -0.17453088
     0.09191760     1.39376285     1.39376285    -0.22123162
     0.09433649     1.37747099     1.37747099    -0.26744068
     0.09675537     1.35811783     1.35811783    -0.31305538
     0.09917426     1.33574635     1.33574635    -0.35797434
     0.10159314     1.31040630     1.31040630    -0.40209773
     0.10401203     1.28215397     1.28215397    -0.44532749
     0.10643091     1.25105217     1.25105217    -0.48756755
     0.10884979     1.21717000     1.21717000    -0.52872403
     0.11126868     1.18058278     1.18058278    -0.56870547
     0.11368756     1.14137181     1.14137181    -0.60742301
     0.11610645     1.09962424     1.09962424    -0.64479059
     0.11852533     1.05543284     1.05543284    -0.68072519
     0.12094422     1.00889584     1.00889584    -0.71514693
     0.12336310     0.96011664     0.96011664    -0.74797932
     0.12578198     0.90920367     0.90920367    -0.77914939
     0.12820087     0.85627007     0.85627007    -0.80858786
     0.13061975     0.80143348     0.80143348    -0.83622931
     0.13303864     0.74481577     0.74481577    -0.86201231
     0.13545752     0.68654277     0.68654277    -0.88587956
     0.13787641     0.62674399     0.62674399    -0.90777802
     0.14029529     0.56555232     0.56555232    -0.92765902
     0.14271418     0.50310376     0.50310376    -0.94547838
     0.14513306     0.43953709     0.43953709    -0.96119648
     0.14755194     0.37499359     0.37499359    -0.97477841
     0.14997083     0.30961669     0.30961669    -0.98619398
     0.15238971     0.24355170     0.24355170    -0.99541781
     0.15480860     0.17694544     0.17694544    -1.00242941
     0.15722748     0.10994592     0.10994592    -1.00721319
     0.15964637     0.04270207     0.04270207    -1.00975852
     0.16206525    -0.02463669    -0.02463669    -1.01005976
     0.16448413    -0.09192070    -0.09192070    -1.00811621
     0.16690302    -0.15900042    -0.15900042    -1.00393222
     0.16932190    -0.22572677    -0.22572677    -0.99751707
     0.17174079    -0.29195147    -0.29195147    -0.98888502
     0.17415967    -0.35752733    -0.35752733    -0.97805526
     0.17657856    -0.42230861    -0.42230861    -0.96505185
     0.17899744    -0.48615135    -0.48615135    -0.94990369
     0.18141632    -0.54891366    -0.54891366    -0.93264445
     0.18383521    -0.61045605    -0.61045605    -0.91331249
     0.18625409    -0.67064175    -0.67064175    -0.89195077
     0.18867298    -0.72933701    -0.72933701    -0.86860676
     0.19109186    -0.78641138    -0.78641138    -0.84333234
     0.19351075    -0.84173802    -0.84173802    -0.81618369
     0.19592963    -0.89519396    -0.89519396    -0.78722114
     0.19834851    -0.94666041    -0.94666041    -0.75650906
     0.20076740    -0.99602299    -0.99602299    -0.72411570
     0.20318628    -1.04317199    -1.04317199    -0.69011305
     0.20560517    -1.08800262    -1.08800262    -0.65457668
     0.20802405    -1.13041526    -1.13041526    -0.61758557
     0.21044294    -1.17031565    -1.17031565    -0.57922193
     0.21286182    -1.20761511    -1.20761511    -0.53957102
     0.21528071    -1.24223074    -1.24223074    -0.49872096
     0.21769959    -1.27408562    -1.27408562    -0.45676252
     0.22011847    -1.30310896    -1.30310896    -0.41378898
     0.22253736    -1.32923624    -1.32923624    -0.36989582
     0.22495624    -1.35240941    -1.35240941    -0.32518060
     0.22737513    -1.37257695    -1.37257695    -0.27974269
     0.22979401    -1.38969406    -1.38969406    -0.23368308
     0.23221290    -1.40372270    -1.40372270    -0.18710413
     0.23463178    -1.41463167    -1.41463167    -0.14010935
     0.23705066    -1.42239675    -1.42239675    -0.09280319
     0.23946955    -1.42700067    -1.42700067    -0.04529079
     0.24188843    -1.42843319    -1.42843319     0.00232227
     0.24430732    -1.42669115    -1.42669115     0.04993017
     0.24672620    -1.42177840    -1.42177840     0.09742711
     0.24914509    -1.41370587    -1.41370587     0.14470752
     0.25156397    -1.40249150    -1.40249150     0.19166633
     0.25398285    -1.38816020    -1.38816020     0.23819917
     0.25640174    -1.37074384    -1.37074384     0.28420264
     0.25882062    -1.35028111    -1.35028111     0.32957450
     0.26123951    -1.32681750    -1.32681750     0.37421390
     0.26365839    -1.30040514    -1.30040514     0.41802164
     0.26607728    -1.27110275    -1.27110275     0.46090036
     0.26849616    -1.23897543    -1.23897543     0.50275477
     0.27091504    -1.20409459    -1.20409459     0.54349186
     0.27333393    -1.16653776    -1.16653776     0.58302107
     0.27575281    -1.12638839    -1.12638839     0.62125457
     0.27817170    -1.08373572    -1.08373572     0.65810738
     0.28059058    -1.03867454    -1.03867454     0.69349761
     0.28300947    -0.99130498    -0.99130498     0.72734659
     0.28542835    -0.94173234    -0.94173234     0.75957911
     0.28784723    -0.89006678    -0.89006678     0.79012353
     0.29026612    -0.83642311    -0.83642311     0.81891196
     0.29268500    -0.78092057    -0.78092057     0.84588043
     0.29510389    -0.72368249    -0.72368249     0.87096900
     0.29752277    -0.66483609    -0.66483609     0.89412192
     0.29994166    -0.60451215    -0.60451215     0.91528772
     0.30236054    -0.54284473    -0.54284473     0.93441938
     0.30477943    -0.47997089    -0.47997089     0.95147436
     0.30719831    -0.41603035    -0.41603035     0.96641478
     0.30961719    -0.35116521    -0.35116521     0.97920741
     0.31203608    -0.28551964    -0.28551964     0.98982384
     0.31445496    -0.21923953    -0.21923953     0.99824047
     0.31687385    -0.15247217    -0.15247217     1.00443860
     0.31929273    -0.08536596    -0.08536596     1.00840444
     0.32171162    -0.01807003    -0.01807003     1.01012919
     0.32413050     0.04926605     0.04926605     1.00960901
     0.32654938     0.11649265     0.11649265     1.00684506
     0.32896827     0.18346036     0.18346036     1.00184348
     0.33138715     0.25002034     0.25002034     0.99461538
     0.33380604     0.31602467     0.31602467     0.98517684
     0.33622492     0.38132666     0.38132666     0.97354882
     0.33864381     0.44578118     0.44578118     0.95975718
     0.34106269     0.50924499     0.50924499     0.94383255
     0.34348157     0.57157705     0.57157705     0.92581033
     0.34590046     0.63263883     0.63263883     0.90573058
     0.34831934     0.69229462     0.69229462     0.88363792
     0.35073823     0.75041184     0.75041184     0.85958145
     0.35315711     0.80686134     0.80686134     0.83361462
     0.35557600     0.86151765     0.86151765     0.80579516
     0.35799488     0.91425931     0.91425931     0.77618489
     0.36041376     0.96496911     0.96496911     0.74484961
     0.36283265     1.01353434     1.01353434     0.71185897
     0.36525153     1.05984708     1.05984708     0.67728628
     0.36767042     1.10380440     1.10380440     0.64120837
     0.37008930     1.14530860     1.14530860     0.60370544
     0.37250819     1.18426746     1.18426746     0.56486082
     0.37492707     1.22059437     1.22059437     0.52476084
     0.37734595     1.25420862     1.25420862     0.48349463
     0.37976484     1.28503549     1.28503549     0.44115389
     0.38218372     1.31300648     1.31300648     0.39783272
     0.38460261     1.33805943     1.33805943     0.35362740
     0.38702149     1.36013864     1.36013864     0.30863617
     0.38944038     1.37919507     1.37919507     0.26295903
     0.39185926     1.39518634     1.39518634     0.21669748
     0.39427815     1.40807694     1.40807694     0.16995434
     0.39669703     1.41783820     1.41783820     0.12283350
     0.39911591     1.42444843     1.42444843     0.07543966
     0.40153480     1.42789294     1.42789294     0.02787817
     0.40395368     1.42816409     1.42816409    -0.01974529
     0.40637257     1.42526125     1.42526125    -0.06732485
     0.40879145     1.41919090     1.41919090    -0.11475480
     0.41121034     1.40996651     1.40996651    -0.16192971
     0.41362922     1.39760858     1.39760858    -0.20874475
     0.41604810     1.38214459     1.38214459    -0.25509587
     0.41846699     1.36360890     1.36360890    -0.30088006
     0.42088587     1.34204270     1.34204270    -0.34599557
     0.42330476     1.31749393     1.31749393    -0.39034213
     0.42572364     1.29001713     1.29001713    -0.43382119
     0.42814253     1.25967338     1.25967338    -0.47633612
     0.43056141     1.22653011     1.22653011    -0.51779243
     0.43298029     1.19066098     1.19066098    -0.55809799
     0.43539918     1.15214570     1.15214570    -0.59716323
     0.43781806     1.11106988     1.11106988    -0.63490132
     0.44023695     1.06752480     1.06752480    -0.67122839
     0.44265583     1.02160723     1.02160723    -0.70606372
     0.44507472     0.97341923     0.97341923    -0.73932988
     0.44749360     0.92306788     0.92306788    -0.77095294
     0.44991248     0.87066509     0.87066509    -0.80086262
     0.45233137     0.81632732     0.81632732    -0.82899245
     0.45475025     0.76017534     0.76017534    -0.85527991
     0.45716914     0.70233392     0.70233392    -0.87966659
     0.45958802     0.64293163     0.64293163    -0.90209828
     0.46200691     0.58210048     0.58210048    -0.92252513
     0.46442579     0.51997565     0.51997565    -0.94090175
     0.46684468     0.45669523     0.45669523    -0.95718729
     0.46926356     0.39239984     0.39239984    -0.97134557
     0.47168244     0.32723237     0.32723237    -0.98334511
     0.47410133     0.26133765     0.26133765    -0.99315924
     0.47652021     0.19486214     0.19486214    -1.00076617
     0.47893910     0.12795356     0.12795356    -1.00614897
     0.48135798     0.06076061     0.06076061    -1.00929570
     0.48377687    -0.00656737    -0.00656737    -1.01019934
     0.48619575    -0.07388076    -0.07388076    -1.00885791
     0.48861463    -0.14102995    -0.14102995    -1.00527437
     0.49103352    -0.20786572    -0.20786572    -0.99945669
     0.49345240    -0.27423952    -0.27423952    -0.99141781
     0.49587129    -0.34000385    -0.34000385    -0.98117558
     0.49829017    -0.40501255    -0.40501255    -0.96875277
     0.50070906    -0.46912114    -0.46912114    -0.95417699
     0.50312794    -0.53218714    -0.53218714    -0.93748063
     0.50554682    -0.59407041    -0.59407041    -0.91870080
     0.50796571    -0.65463341    -0.65463341    -0.89787923
     0.51038459    -0.71374153    -0.71374153    -0.87506220
     0.51280348    -0.77126343    -0.77126343    -0.85030042
     0.51522236    -0.82707126    -0.82707126    -0.82364891
     0.51764125    -0.88104099    -0.88104099    -0.79516692
     0.52006013    -0.93305268    -0.93305268    -0.76491773
     0.52247901    -0.98299074    -0.98299074    -0.73296858
     0.52489790    -1.03074418    -1.03074418    -0.69939047
     0.52731678    -1.07620688    -1.07620688    -0.66425802
     0.52973567    -1.11927781    -1.11927781    -0.62764931
     0.53215455    -1.15986123    -1.15986123    -0.58964570
     0.53457344    -1.19786695    -1.19786695    -0.55033166
     0.53699232    -1.23321052    -1.23321052    -0.50979455
     0.53941120    -1.26581338    -1.26581338    -0.46812446
     0.54183009    -1.29560308    -1.29560308    -0.42541401
     0.54424897    -1.32251340    -1.32251340    -0.38175811
     0.54666786    -1.34648455    -1.34648455    -0.33725378
     0.54908674    -1.36746325    -1.36746325    -0.29199993
     0.55150563    -1.38540288    -1.38540288    -0.24609714
     0.55392451    -1.40026357    -1.40026357    -0.19964742
     0.55634340    -1.41201229    -1.41201229    -0.15275400
     0.55876228    -1.42062292    -1.42062292    -0.10552110
     0.56118116    -1.42607635    -1.42607635    -0.05805369
     0.56360005    -1.42836043    -1.42836043    -0.01045725
     0.56601893    -1.42747011    -1.42747011     0.03716242
     0.56843782    -1.42340735    -1.42340735     0.08469951
     0.57085670    -1.41618119    -1.41618119     0.13204835
     0.57327559    -1.40580769    -1.40580769     0.17910373
     0.57569447    -1.39230989    -1.39230989     0.22576107
     0.57811335    -1.37571780    -1.37571780     0.27191667
     0.58053224    -1.35606830    -1.35606830     0.31746796
     0.58295112    -1.33340505    -1.33340505     0.36231371
     0.58537001    -1.30777841    -1.30777841     0.40635424
     0.58778889    -1.27924535    -1.27924535     0.44949168
     0.59020778    -1.24786927    -1.24786927     0.49163017
     0.59262666    -1.21371990    -1.21371990     0.53267605
     0.59504554    -1.17687315    -1.17687315     0.57253810
     0.59746443    -1.13741089    -1.13741089     0.61112773
     0.59988331    -1.09542083    -1.09542083     0.64835919
     0.60230220    -1.05099630    -1.05099630     0.68414972
     0.60472108    -1.00423601    -1.00423601     0.71841978
     0.60713997    -0.95524388    -0.95524388     0.75109322
     0.60955885    -0.90412881    -0.90412881     0.78209741
     0.61197773    -0.85100439    -0.85100439     0.81136346
     0.61439662    -0.79598869    -0.79598869     0.83882632
     0.61681550    -0.73920396    -0.73920396     0.86442496
     0.61923439    -0.68077641    -0.68077641     0.88810248
     0.62165327    -0.62083590    -0.62083590     0.90980628
     0.62407216    -0.55951563    -0.55951563     0.92948810
     0.62649104    -0.49695189    -0.49695189     0.94710422
     0.62890992    -0.43328371    -0.43328371     0.96261547
     0.63132881    -0.36865259    -0.36865259     0.97598739
     0.63374769    -0.30320217    -0.30320217     0.98719027
     0.63616658    -0.23707792    -0.23707792     0.99619919
     0.63858546    -0.17042677    -0.17042677     1.00299415
     0.64100435    -0.10339687    -0.10339687     1.00756003
     0.64342323    -0.03613718    -0.03613718     1.00988670
     0.64584212     0.03120283     0.03120283     1.00996897
     0.64826100     0.09847349     0.09847349     1.00780668
     0.65067988     0.16552530     0.16552530     1.00340462
     0.65309877     0.23220924     0.23220924     0.99677258
     0.65551765     0.29837712     0.29837712     0.98792529
     0.65793654     0.36388188     0.36388188     0.97688243
     0.66035542     0.42857795     0.42857795     0.96366852
     0.66277431     0.49232153     0.49232153     0.94831294
     0.66519319     0.55497097     0.55497097     0.93084981
     0.66761207     0.61638704     0.61638704     0.91131795
     0.67003096     0.67643324     0.67643324     0.88976076
     0.67244984     0.73497612     0.73497612     0.86622615
     0.67486873     0.79188557     0.79188557     0.84076643
     0.67728761     0.84703513     0.84703513     0.81343817
     0.67970650     0.90030222     0.90030222     0.78430212
     0.68212538     0.95156847     0.95156847     0.75342302
     0.68454426     1.00071994     1.00071994     0.72086949
     0.68696315     1.04764738     1.04764738     0.68671390
     0.68938203     1.09224652     1.09224652     0.65103214
     0.69180092     1.13441824     1.13441824     0.61390352
     0.69421980     1.17406880     1.17406880     0.57541055
     0.69663869     1.21111010     1.21111010     0.53563878
     0.69905757     1.24545980     1.24545980     0.49467659
     0.70147645     1.27704157     1.27704157     0.45261503
     0.70389534     1.30578523     1.30578523     0.40954757
     0.70631422     1.33162688     1.33162688     0.36556992
     0.70873311     1.35450911     1.35450911     0.32077983
     0.71115199     1.37438105     1.37438105     0.27527683
     0.71357088     1.39119855     1.39119855     0.22916204
     0.71598976     1.40492423     1.40492423     0.18253797
     0.71840864     1.41552757     1.41552757     0.13550822
     0.72082753     1.42298503     1.42298503     0.08817731
     0.72324641     1.42728002     1.42728002     0.04065044
     0.72566530     1.42840300     1.42840300    -0.00696677
     0.72808418     1.42635147     1.42635147    -0.05456851
     0.73050307     1.42113000     1.42113000    -0.10204896
     0.73292195     1.41275019     1.41275019    -0.14930263
     0.73534084     1.40123065     1.40123065    -0.19622448
     0.73775972     1.38659700     1.38659700    -0.24271023
     0.74017860     1.36888175     1.36888175    -0.28865659
     0.74259749     1.34812428     1.34812428    -0.33396143
     0.74501637     1.32437071     1.32437071    -0.37852406
     0.74743526     1.29767384     1.29767384    -0.42224546
     0.74985414     1.26809300     1.26809300    -0.46502846
     0.75227303     1.23569393     1.23569393    -0.50677797
     0.75469191     1.20054863     1.20054863    -0.54740120
     0.75711079     1.16273521     1.16273521    -0.58680788
     0.75952968     1.12233771     1.12233771    -0.62491044
     0.76194856     1.07944591     1.07944591    -0.66162418
     0.76436745     1.03415513     1.03415513    -0.69686751
     0.76678633     0.98656603     0.98656603    -0.73056212
     0.76920522     0.93678436     0.93678436    -0.76263311
     0.77162410     0.88492078     0.88492078    -0.79300921
     0.77404298     0.83109053     0.83109053    -0.82162292
     0.77646187     0.77541325     0.77541325    -0.84841064
     0.77888075     0.71801268     0.71801268    -0.87331284
     0.78129964     0.65901638     0.65901638    -0.89627417
     0.78371852     0.59855548     0.59855548    -0.91724361
     0.78613741     0.53676434     0.53676434    -0.93617455
