#     time (fs)  |  E_x (eV/ang)  | E_y (eV/ang) | E_z (eV/ang)
     0.00000000     0.00000000     0.00000000     0.00000000
     0.00241888     0.04091361     0.04091361     0.00000000
     0.00483777     0.08179476     0.08179476     0.00000000
     0.00725665     0.12261102     0.12261102     0.00000000
     0.00967554     0.16333003     0.16333003     0.00000000
     0.01209442     0.20391947     0.20391947     0.00000000
     0.01451331     0.24434715     0.24434715     0.00000000
     0.01693219     0.28458100     0.28458100     0.00000000
     0.01935107     0.32458910     0.32458910     0.00000000
     0.02176996     0.36433972     0.36433972     0.00000000
     0.02418884     0.40380132     0.40380132     0.00000000
     0.02660773     0.44294260     0.44294260     0.00000000
     0.02902661     0.48173251     0.48173251     0.00000000
     0.03144550     0.52014029     0.52014029     0.00000000
     0.03386438     0.55813546     0.55813546     0.00000000
     0.03628326     0.59568788     0.59568788     0.00000000
     0.03870215     0.63276776     0.63276776     0.00000000
     0.04112103     0.66934570     0.66934570     0.00000000
     0.04353992     0.70539267     0.70539267     0.00000000
     0.04595880     0.74088008     0.74088008     0.00000000
     0.04837769     0.77577978     0.77577978     0.00000000
     0.05079657     0.81006409     0.81006409     0.00000000
     0.05321546     0.84370580     0.84370580     0.00000000
     0.05563434     0.87667823     0.87667823     0.00000000
     0.05805322     0.90895523     0.90895523     0.00000000
     0.06047211     0.94051120     0.94051120     0.00000000
     0.06289099     0.97132109     0.97132109     0.00000000
     0.06530988     1.00136047     1.00136047     0.00000000
     0.06772876     1.03060552     1.03060552     0.00000000
     0.07014765     1.05903302     1.05903302     0.00000000
     0.07256653     1.08662044     1.08662044     0.00000000
     0.07498541     1.11334588     1.11334588     0.00000000
     0.07740430     1.13918815     1.13918815     0.00000000
     0.07982318     1.16412674     1.16412674     0.00000000
     0.08224207     1.18814189     1.18814189     0.00000000
     0.08466095     1.21121452     1.21121452     0.00000000
     0.08707984     1.23332635     1.23332635     0.00000000
     0.08949872     1.25445983     1.25445983     0.00000000
     0.09191760     1.27459819     1.27459819     0.00000000
     0.09433649     1.29372547     1.29372547     0.00000000
     0.09675537     1.31182649     1.31182649     0.00000000
     0.09917426     1.32888688     1.32888688     0.00000000
     0.10159314     1.34489313     1.34489313     0.00000000
     0.10401203     1.35983252     1.35983252     0.00000000
     0.10643091     1.37369321     1.37369321     0.00000000
     0.10884979     1.38646421     1.38646421     0.00000000
     0.11126868     1.39813538     1.39813538     0.00000000
     0.11368756     1.40869746     1.40869746     0.00000000
     0.11610645     1.41814208     1.41814208     0.00000000
     0.11852533     1.42646175     1.42646175     0.00000000
     0.12094422     1.43364985     1.43364985     0.00000000
     0.12336310     1.43970071     1.43970071     0.00000000
     0.12578198     1.44460950     1.44460950     0.00000000
     0.12820087     1.44837234     1.44837234     0.00000000
     0.13061975     1.45098625     1.45098625     0.00000000
     0.13303864     1.45244915     1.45244915     0.00000000
     0.13545752     1.45275987     1.45275987     0.00000000
     0.13787641     1.45191818     1.45191818     0.00000000
     0.14029529     1.44992474     1.44992474     0.00000000
     0.14271418     1.44678114     1.44678114     0.00000000
     0.14513306     1.44248986     1.44248986     0.00000000
     0.14755194     1.43705431     1.43705431     0.00000000
     0.14997083     1.43047880     1.43047880     0.00000000
     0.15238971     1.42276855     1.42276855     0.00000000
     0.15480860     1.41392967     1.41392967     0.00000000
     0.15722748     1.40396918     1.40396918     0.00000000
     0.15964637     1.39289498     1.39289498     0.00000000
     0.16206525     1.38071584     1.38071584     0.00000000
     0.16448413     1.36744144     1.36744144     0.00000000
     0.16690302     1.35308231     1.35308231     0.00000000
     0.16932190     1.33764983     1.33764983     0.00000000
     0.17174079     1.32115624     1.32115624     0.00000000
     0.17415967     1.30361463     1.30361463     0.00000000
     0.17657856     1.28503892     1.28503892     0.00000000
     0.17899744     1.26544384     1.26544384     0.00000000
     0.18141632     1.24484493     1.24484493     0.00000000
     0.18383521     1.22325853     1.22325853     0.00000000
     0.18625409     1.20070177     1.20070177     0.00000000
     0.18867298     1.17719255     1.17719255     0.00000000
     0.19109186     1.15274950     1.15274950     0.00000000
     0.19351075     1.12739202     1.12739202     0.00000000
     0.19592963     1.10114023     1.10114023     0.00000000
     0.19834851     1.07401494     1.07401494     0.00000000
     0.20076740     1.04603769     1.04603769     0.00000000
     0.20318628     1.01723065     1.01723065     0.00000000
     0.20560517     0.98761668     0.98761668     0.00000000
     0.20802405     0.95721928     0.95721928     0.00000000
     0.21044294     0.92606256     0.92606256     0.00000000
     0.21286182     0.89417122     0.89417122     0.00000000
     0.21528071     0.86157057     0.86157057     0.00000000
     0.21769959     0.82828648     0.82828648     0.00000000
     0.22011847     0.79434534     0.79434534     0.00000000
     0.22253736     0.75977407     0.75977407     0.00000000
     0.22495624     0.72460011     0.72460011     0.00000000
     0.22737513     0.68885135     0.68885135     0.00000000
     0.22979401     0.65255615     0.65255615     0.00000000
     0.23221290     0.61574330     0.61574330     0.00000000
     0.23463178     0.57844201     0.57844201     0.00000000
     0.23705066     0.54068187     0.54068187     0.00000000
     0.23946955     0.50249282     0.50249282     0.00000000
     0.24188843     0.46390517     0.46390517     0.00000000
     0.24430732     0.42494952     0.42494952     0.00000000
     0.24672620     0.38565677     0.38565677     0.00000000
     0.24914509     0.34605810     0.34605810     0.00000000
     0.25156397     0.30618491     0.30618491     0.00000000
     0.25398285     0.26606884     0.26606884     0.00000000
     0.25640174     0.22574170     0.22574170     0.00000000
     0.25882062     0.18523550     0.18523550     0.00000000
     0.26123951     0.14458235     0.14458235     0.00000000
     0.26365839     0.10381452     0.10381452     0.00000000
     0.26607728     0.06296433     0.06296433     0.00000000
     0.26849616     0.02206419     0.02206419     0.00000000
     0.27091504    -0.01885345    -0.01885345    -0.00000000
     0.27333393    -0.05975613    -0.05975613    -0.00000000
     0.27575281    -0.10061141    -0.10061141    -0.00000000
     0.27817170    -0.14138688    -0.14138688    -0.00000000
     0.28059058    -0.18205019    -0.18205019    -0.00000000
     0.28300947    -0.22256909    -0.22256909    -0.00000000
     0.28542835    -0.26291144    -0.26291144    -0.00000000
     0.28784723    -0.30304523    -0.30304523    -0.00000000
     0.29026612    -0.34293862    -0.34293862    -0.00000000
     0.29268500    -0.38255997    -0.38255997    -0.00000000
     0.29510389    -0.42187786    -0.42187786    -0.00000000
     0.29752277    -0.46086108    -0.46086108    -0.00000000
     0.29994166    -0.49947873    -0.49947873    -0.00000000
     0.30236054    -0.53770015    -0.53770015    -0.00000000
     0.30477943    -0.57549504    -0.57549504    -0.00000000
     0.30719831    -0.61283342    -0.61283342    -0.00000000
     0.30961719    -0.64968565    -0.64968565    -0.00000000
     0.31203608    -0.68602252    -0.68602252    -0.00000000
     0.31445496    -0.72181519    -0.72181519    -0.00000000
     0.31687385    -0.75703528    -0.75703528    -0.00000000
     0.31929273    -0.79165483    -0.79165483    -0.00000000
     0.32171162    -0.82564641    -0.82564641    -0.00000000
     0.32413050    -0.85898302    -0.85898302    -0.00000000
     0.32654938    -0.89163824    -0.89163824    -0.00000000
     0.32896827    -0.92358616    -0.92358616    -0.00000000
     0.33138715    -0.95480144    -0.95480144    -0.00000000
     0.33380604    -0.98525931    -0.98525931    -0.00000000
     0.33622492    -1.01493561    -1.01493561    -0.00000000
     0.33864381    -1.04380681    -1.04380681    -0.00000000
     0.34106269    -1.07184999    -1.07184999    -0.00000000
     0.34348157    -1.09904292    -1.09904292    -0.00000000
     0.34590046    -1.12536402    -1.12536402    -0.00000000
     0.34831934    -1.15079241    -1.15079241    -0.00000000
     0.35073823    -1.17530793    -1.17530793    -0.00000000
     0.35315711    -1.19889112    -1.19889112    -0.00000000
     0.35557600    -1.22152328    -1.22152328    -0.00000000
     0.35799488    -1.24318645    -1.24318645    -0.00000000
     0.36041376    -1.26386345    -1.26386345    -0.00000000
     0.36283265    -1.28353788    -1.28353788    -0.00000000
     0.36525153    -1.30219413    -1.30219413    -0.00000000
     0.36767042    -1.31981741    -1.31981741    -0.00000000
     0.37008930    -1.33639372    -1.33639372    -0.00000000
     0.37250819    -1.35190992    -1.35190992    -0.00000000
     0.37492707    -1.36635371    -1.36635371    -0.00000000
     0.37734595    -1.37971362    -1.37971362    -0.00000000
     0.37976484    -1.39197907    -1.39197907    -0.00000000
     0.38218372    -1.40314031    -1.40314031    -0.00000000
     0.38460261    -1.41318849    -1.41318849    -0.00000000
     0.38702149    -1.42211565    -1.42211565    -0.00000000
     0.38944038    -1.42991470    -1.42991470    -0.00000000
     0.39185926    -1.43657946    -1.43657946    -0.00000000
     0.39427815    -1.44210463    -1.44210463    -0.00000000
     0.39669703    -1.44648584    -1.44648584    -0.00000000
     0.39911591    -1.44971961    -1.44971961    -0.00000000
     0.40153480    -1.45180338    -1.45180338    -0.00000000
     0.40395368    -1.45273549    -1.45273549    -0.00000000
     0.40637257    -1.45251520    -1.45251520     0.00000000
     0.40879145    -1.45114269    -1.45114269     0.00000000
     0.41121034    -1.44861904    -1.44861904     0.00000000
     0.41362922    -1.44494626    -1.44494626     0.00000000
     0.41604810    -1.44012727    -1.44012727     0.00000000
     0.41846699    -1.43416588    -1.43416588     0.00000000
     0.42088587    -1.42706682    -1.42706682     0.00000000
     0.42330476    -1.41883572    -1.41883572     0.00000000
     0.42572364    -1.40947912    -1.40947912     0.00000000
     0.42814253    -1.39900444    -1.39900444     0.00000000
     0.43056141    -1.38741998    -1.38741998     0.00000000
     0.43298029    -1.37473494    -1.37473494     0.00000000
     0.43539918    -1.36095937    -1.36095937     0.00000000
     0.43781806    -1.34610421    -1.34610421     0.00000000
     0.44023695    -1.33018124    -1.33018124     0.00000000
     0.44265583    -1.31320309    -1.31320309     0.00000000
     0.44507472    -1.29518322    -1.29518322     0.00000000
     0.44749360    -1.27613594    -1.27613594     0.00000000
     0.44991248    -1.25607635    -1.25607635     0.00000000
     0.45233137    -1.23502037    -1.23502037     0.00000000
     0.45475025    -1.21298469    -1.21298469     0.00000000
     0.45716914    -1.18998680    -1.18998680     0.00000000
     0.45958802    -1.16604494    -1.16604494     0.00000000
     0.46200691    -1.14117811    -1.14117811     0.00000000
     0.46442579    -1.11540602    -1.11540602     0.00000000
     0.46684468    -1.08874912    -1.08874912     0.00000000
     0.46926356    -1.06122857    -1.06122857     0.00000000
     0.47168244    -1.03286618    -1.03286618     0.00000000
     0.47410133    -1.00368446    -1.00368446     0.00000000
     0.47652021    -0.97370656    -0.97370656     0.00000000
     0.47893910    -0.94295626    -0.94295626     0.00000000
     0.48135798    -0.91145794    -0.91145794     0.00000000
     0.48377687    -0.87923661    -0.87923661     0.00000000
     0.48619575    -0.84631781    -0.84631781     0.00000000
     0.48861463    -0.81272766    -0.81272766     0.00000000
     0.49103352    -0.77849280    -0.77849280     0.00000000
     0.49345240    -0.74364040    -0.74364040     0.00000000
     0.49587129    -0.70819810    -0.70819810     0.00000000
     0.49829017    -0.67219401    -0.67219401     0.00000000
     0.50070906    -0.63565669    -0.63565669     0.00000000
     0.50312794    -0.59861514    -0.59861514     0.00000000
     0.50554682    -0.56109873    -0.56109873     0.00000000
     0.50796571    -0.52313722    -0.52313722     0.00000000
     0.51038459    -0.48476073    -0.48476073     0.00000000
     0.51280348    -0.44599969    -0.44599969     0.00000000
     0.51522236    -0.40688486    -0.40688486     0.00000000
     0.51764125    -0.36744727    -0.36744727     0.00000000
     0.52006013    -0.32771819    -0.32771819     0.00000000
     0.52247901    -0.28772915    -0.28772915     0.00000000
     0.52489790    -0.24751187    -0.24751187     0.00000000
     0.52731678    -0.20709824    -0.20709824     0.00000000
     0.52973567    -0.16652033    -0.16652033     0.00000000
     0.53215455    -0.12581033    -0.12581033     0.00000000
     0.53457344    -0.08500052    -0.08500052     0.00000000
     0.53699232    -0.04412329    -0.04412329     0.00000000
     0.53941120    -0.00321106    -0.00321106     0.00000000
     0.54183009     0.03770372     0.03770372     0.00000000
     0.54424897     0.07858859     0.07858859     0.00000000
     0.54666786     0.11941112     0.11941112     0.00000000
     0.54908674     0.16013893     0.16013893     0.00000000
     0.55150563     0.20073970     0.20073970     0.00000000
     0.55392451     0.24118124     0.24118124     0.00000000
     0.55634340     0.28143145     0.28143145     0.00000000
     0.55876228     0.32145842     0.32145842     0.00000000
     0.56118116     0.36123038     0.36123038     0.00000000
     0.56360005     0.40071580     0.40071580     0.00000000
     0.56601893     0.43988335     0.43988335     0.00000000
     0.56843782     0.47870195     0.47870195     0.00000000
     0.57085670     0.51714082     0.51714082     0.00000000
     0.57327559     0.55516946     0.55516946     0.00000000
     0.57569447     0.59275771     0.59275771     0.00000000
     0.57811335     0.62987574     0.62987574     0.00000000
     0.58053224     0.66649412     0.66649412     0.00000000
     0.58295112     0.70258380     0.70258380     0.00000000
     0.58537001     0.73811614     0.73811614     0.00000000
     0.58778889     0.77306297     0.77306297     0.00000000
     0.59020778     0.80739656     0.80739656     0.00000000
     0.59262666     0.84108967     0.84108967     0.00000000
     0.59504554     0.87411558     0.87411558     0.00000000
     0.59746443     0.90644808     0.90644808     0.00000000
     0.59988331     0.93806154     0.93806154     0.00000000
     0.60230220     0.96893087     0.96893087     0.00000000
     0.60472108     0.99903159     0.99903159     0.00000000
     0.60713997     1.02833981     1.02833981     0.00000000
     0.60955885     1.05683230     1.05683230     0.00000000
     0.61197773     1.08448644     1.08448644     0.00000000
     0.61439662     1.11128030     1.11128030     0.00000000
     0.61681550     1.13719262     1.13719262     0.00000000
     0.61923439     1.16220286     1.16220286     0.00000000
     0.62165327     1.18629117     1.18629117     0.00000000
     0.62407216     1.20943844     1.20943844     0.00000000
     0.62649104     1.23162631     1.23162631     0.00000000
     0.62890992     1.25283718     1.25283718     0.00000000
     0.63132881     1.27305422     1.27305422     0.00000000
     0.63374769     1.29226140     1.29226140     0.00000000
     0.63616658     1.31044348     1.31044348     0.00000000
     0.63858546     1.32758604     1.32758604     0.00000000
     0.64100435     1.34367548     1.34367548     0.00000000
     0.64342323     1.35869903     1.35869903     0.00000000
     0.64584212     1.37264478     1.37264478     0.00000000
     0.64826100     1.38550166     1.38550166     0.00000000
     0.65067988     1.39725949     1.39725949     0.00000000
     0.65309877     1.40790892     1.40790892     0.00000000
     0.65551765     1.41744151     1.41744151     0.00000000
     0.65793654     1.42584971     1.42584971     0.00000000
     0.66035542     1.43312683     1.43312683     0.00000000
     0.66277431     1.43926711     1.43926711     0.00000000
     0.66519319     1.44426568     1.44426568     0.00000000
     0.66761207     1.44811857     1.44811857     0.00000000
     0.67003096     1.45082272     1.45082272     0.00000000
     0.67244984     1.45237600     1.45237600     0.00000000
     0.67486873     1.45277716     1.45277716     0.00000000
     0.67728761     1.45202589     1.45202589     0.00000000
     0.67970650     1.45012279     1.45012279     0.00000000
     0.68212538     1.44706936     1.44706936     0.00000000
     0.68454426     1.44286803     1.44286803     0.00000000
     0.68696315     1.43752213     1.43752213     0.00000000
     0.68938203     1.43103590     1.43103590     0.00000000
     0.69180092     1.42341449     1.42341449     0.00000000
     0.69421980     1.41466394     1.41466394     0.00000000
     0.69663869     1.40479119     1.40479119     0.00000000
     0.69905757     1.39380408     1.39380408     0.00000000
     0.70147645     1.38171132     1.38171132     0.00000000
     0.70389534     1.36852250     1.36852250     0.00000000
     0.70631422     1.35424808     1.35424808     0.00000000
     0.70873311     1.33889940     1.33889940     0.00000000
     0.71115199     1.32248862     1.32248862     0.00000000
     0.71357088     1.30502876     1.30502876     0.00000000
     0.71598976     1.28653368     1.28653368     0.00000000
     0.71840864     1.26701804     1.26701804     0.00000000
     0.72082753     1.24649732     1.24649732     0.00000000
     0.72324641     1.22498781     1.22498781     0.00000000
     0.72566530     1.20250656     1.20250656     0.00000000
     0.72808418     1.17907141     1.17907141     0.00000000
     0.73050307     1.15470095     1.15470095     0.00000000
     0.73292195     1.12941452     1.12941452     0.00000000
     0.73534084     1.10323216     1.10323216     0.00000000
     0.73775972     1.07617465     1.07617465     0.00000000
     0.74017860     1.04826346     1.04826346     0.00000000
     0.74259749     1.01952072     1.01952072     0.00000000
     0.74501637     0.98996924     0.98996924     0.00000000
     0.74743526     0.95963245     0.95963245     0.00000000
     0.74985414     0.92853442     0.92853442     0.00000000
     0.75227303     0.89669983     0.89669983     0.00000000
     0.75469191     0.86415391     0.86415391     0.00000000
     0.75711079     0.83092250     0.83092250     0.00000000
     0.75952968     0.79703196     0.79703196     0.00000000
     0.76194856     0.76250915     0.76250915     0.00000000
     0.76436745     0.72738148     0.72738148     0.00000000
     0.76678633     0.69167681     0.69167681     0.00000000
     0.76920522     0.65542346     0.65542346     0.00000000
     0.77162410     0.61865018     0.61865018     0.00000000
     0.77404298     0.58138616     0.58138616     0.00000000
     0.77646187     0.54366094     0.54366094     0.00000000
     0.77888075     0.50550446     0.50550446     0.00000000
     0.78129964     0.46694699     0.46694699     0.00000000
     0.78371852     0.42801910     0.42801910     0.00000000
     0.78613741     0.38875168     0.38875168     0.00000000
