#           time (fs)    |     mu_x (e.angstrom)   |     mu_y (e.angstrom)   |     mu_z (e.angstrom)   |
        0.000000000000000       -0.000000000000000       -0.000000000000000        0.000000000000000
        0.002418884326505       -0.000000005978196        0.000000017532760        0.000119685612846
        0.004837768653010       -0.000000023907215        0.000000070119019        0.000239348729055
        0.007256652979515       -0.000000053499308        0.000000156908353        0.000357100660264
        0.009675537306020       -0.000000094840931        0.000000278165128        0.000474838150868
        0.012094421632525       -0.000000146984467        0.000000431094936        0.000588770024955
        0.014513305959030       -0.000000210492107        0.000000617366125        0.000702703408740
        0.016932190285535       -0.000000283399159        0.000000831192629        0.000811005349587
        0.019351074612040       -0.000000367110828        0.000001076724017        0.000919332265722
        0.021769958938545       -0.000000458319769        0.000001344227659        0.001020299778869
        0.024188843265050       -0.000000559612480        0.000001641326511        0.001121322685910
        0.026607727591555       -0.000000666055981        0.000001953511393        0.001213383688882
        0.029026611918060       -0.000000781716093        0.000002292752779        0.001305536723039
        0.031445496244565       -0.000000899803744        0.000002639088989        0.001387276295418
        0.033864380571070       -0.000001026111632        0.000003009564094        0.001469149863077
        0.036283264897575       -0.000001151825299        0.000003378267334        0.001539332326773
        0.038702149224080       -0.000001284652422        0.000003767868079        0.001609695044743
        0.041121033550585       -0.000001413652164        0.000004146210225        0.001667283029726
        0.043539917877090       -0.000001548568330        0.000004541943792        0.001725100671153
        0.045958802203595       -0.000001676306468        0.000004916587365        0.001769270872127
        0.048377686530100       -0.000001808694891        0.000005304913536        0.001813722025889
        0.050796570856605       -0.000001930535671        0.000005662262550        0.001843877410042
        0.053215455183110       -0.000002055713237        0.000006029446320        0.001874365615601
        0.055634339509615       -0.000002167055388        0.000006356005612        0.001890143899798
        0.058053223836120       -0.000002280395431        0.000006688477177        0.001906306077371
        0.060472108162625       -0.000002376794851        0.000006971212145        0.001907584354109
        0.062890992489130       -0.000002473849695        0.000007255926209        0.001909295410409
        0.065309876815635       -0.000002551139507        0.000007482614852        0.001896190864377
        0.067728761142140       -0.000002627760008        0.000007707401177        0.001883564416252
        0.070147645468645       -0.000002682165270        0.000007866970484        0.001856431136526
        0.072566529795150       -0.000002734614664        0.000008020867775        0.001829816357509
        0.074985414121655       -0.000002762859107        0.000008103706798        0.001789238313232
        0.077404298448160       -0.000002787918576        0.000008177272348        0.001749212970316
        0.079823182774665       -0.000002787320934        0.000008175514782        0.001695993279103
        0.082242067101170       -0.000002782384461        0.000008161102755        0.001643353087994
        0.084660951427675       -0.000002750942142        0.000008068872442        0.001578499765372
        0.087079835754180       -0.000002714098452        0.000007960874324        0.001514244251043
        0.089498720080685       -0.000002650556562        0.000007774487859        0.001438952684964
        0.091917604407190       -0.000002580656193        0.000007569529347        0.001364267789641
        0.094336488733695       -0.000002484560241        0.000007287650829        0.001279900235716
        0.096755373060200       -0.000002381266108        0.000006984740320        0.001196137967596
        0.099174257386705       -0.000002252997017        0.000006608484262        0.001104200407245
        0.101593141713210       -0.000002116817145        0.000006209109082        0.001012855869501
        0.104012026039715       -0.000001957607603        0.000005742088567        0.000914972614152
        0.106430910366220       -0.000001789909091        0.000005250256136        0.000817658794330
        0.108849794692725       -0.000001601840618        0.000004698574424        0.000715545253370
        0.111268679019230       -0.000001404844267        0.000004120796697        0.000613965987610
        0.113687563345735       -0.000001190824793        0.000003492981644        0.000509400045529
        0.116106447672240       -0.000000967580228        0.000002838202314        0.000405321599600
        0.118525331998745       -0.000000731302386        0.000002145084177        0.000300114068259
        0.120944216325250       -0.000000485643921        0.000001424549339        0.000195335797731
        0.123363100651755       -0.000000231524644        0.000000679083697        0.000091300422645
        0.125781984978260        0.000000031991488       -0.000000093842188       -0.000012375012607
        0.128200869304765        0.000000298889071       -0.000000876803493       -0.000113451507827
        0.130619753631270        0.000000575065082       -0.000001686873302       -0.000214247894336
        0.133038637957775        0.000000849126090       -0.000002490859203       -0.000310635243722
        0.135457522284280        0.000001132219193       -0.000003321226437       -0.000406832052349
        0.137876406610785        0.000001407386051       -0.000004128466617       -0.000496884892014
        0.140295290937290        0.000001691219478       -0.000004961011112       -0.000586845535123
        0.142714175263795        0.000001961113562       -0.000005752792948       -0.000669030402530
        0.145133059590300        0.000002239199955       -0.000006568482977       -0.000751229059902
        0.147551943916805        0.000002497253496       -0.000007325538625       -0.000824149518868
        0.149970828243310        0.000002762928348       -0.000008104822484       -0.000897196106375
        0.152389712569815        0.000003002524059       -0.000008807738620       -0.000959615600218
        0.154808596896320        0.000003249086621       -0.000009530958147       -0.001022278486485
        0.157227481222825        0.000003463702273       -0.000010160600269       -0.001073140559388
        0.159646365549330        0.000003684561167       -0.000010808418181       -0.001124366673008
        0.162065249875835        0.000003867916257       -0.000011346361010       -0.001162812242891
        0.164484134202340        0.000004056736909       -0.000011900193537       -0.001201744255578
        0.166903018528845        0.000004202938434       -0.000012329148803       -0.001227125669872
        0.169321902855350        0.000004353789340       -0.000012771594909       -0.001253115988620
        0.171740787181855        0.000004457473695       -0.000013075827719       -0.001265007646407
        0.174159671508360        0.000004564968543       -0.000013391086100       -0.001277628999371
        0.176578555834865        0.000004621436582       -0.000013556811203       -0.001275834378732
        0.178997440161370        0.000004680869259       -0.000013731076386       -0.001274886834406
        0.181416324487875        0.000004686211642       -0.000013746825909       -0.001259441821428
        0.183835208814380        0.000004693681271       -0.000013768655049       -0.001244956137863
        0.186254093140885        0.000004644891381       -0.000013625609704       -0.001216128612801
        0.188672977467390        0.000004597414672       -0.000013486252128       -0.001188365872148
        0.191091861793895        0.000004492486570       -0.000013178528497       -0.001146651567738
        0.193510746120400        0.000004388094984       -0.000012872210636       -0.001106099110410
        0.195929630446905        0.000004226104132       -0.000012397097873       -0.001052213816292
        0.198348514773410        0.000004063923590       -0.000011921256985       -0.000999577547544
        0.200767399099915        0.000003845088376       -0.000011279397152       -0.000934445792367
        0.203186283426420        0.000003625399577       -0.000010634858120       -0.000870638991244
        0.205605167752925        0.000003351121989       -0.000009830365374       -0.000795379389260
        0.208024052079430        0.000003075399716       -0.000009021455868       -0.000721508204669
        0.210442936405935        0.000002748283921       -0.000008061970818       -0.000637415705700
        0.212861820732440        0.000002419214105       -0.000007096571215       -0.000554761576079
        0.215280705058945        0.000002043062068       -0.000005993247936       -0.000463286905837
        0.217699589385450        0.000001664535782       -0.000004882773584       -0.000373286186611
        0.220118473711955        0.000001244319494       -0.000003650198048       -0.000276012807736
        0.222537358038460        0.000000821403470       -0.000002409512693       -0.000180233933854
        0.224956242364965        0.000000363213788       -0.000001065552625       -0.000078852896009
        0.227375126691470       -0.000000097902499        0.000000287186882        0.000021028555415
        0.229794011017975       -0.000000586929950        0.000001721599400        0.000124745475987
        0.232212895344480       -0.000001079010165        0.000003165165710        0.000226973426024
        0.234631779670985       -0.000001590791133        0.000004666316264        0.000331201871463
        0.237050663997490       -0.000002105650004        0.000006176698762        0.000433967660332
        0.239469548323995       -0.000002631268488        0.000007718433418        0.000536859675774
        0.241888432650500       -0.000003159890419        0.000009269186127        0.000638330823238
        0.244307316977005       -0.000003689734545        0.000010823309949        0.000738044224436
        0.246726201303510       -0.000004222411177        0.000012385954971        0.000836393576689
        0.249145085630015       -0.000004746325963        0.000013922680068        0.000931121239410
        0.251563969956520       -0.000005272810534        0.000015467160309        0.001024556044852
        0.253982854283025       -0.000005780265089        0.000016955596202        0.001112554657459
        0.256401738609530       -0.000006289941117        0.000018450770102        0.001199345116286
        0.258820622936035       -0.000006770207499        0.000019859448308        0.001278962946739
        0.261239507262540       -0.000007252269001        0.000021273618414        0.001357469788896
        0.263658391589045       -0.000007694609711        0.000022571042376        0.001427173034169
        0.266077275915550       -0.000008138249912        0.000023872508844        0.001495873696754
        0.268496160242055       -0.000008532110787        0.000025027719717        0.001554271006113
        0.270915044568560       -0.000008926716065        0.000026185349205        0.001611784004473
        0.273333928895065       -0.000009261921185        0.000027168497567        0.001657648797787
        0.275752813221570       -0.000009597266867        0.000028152297565        0.001702755913925
        0.278171697548075       -0.000009864211988        0.000028935210857        0.001735046151689
        0.280590581874580       -0.000010130656488        0.000029716899213        0.001766712098723
        0.283009466201085       -0.000010320497500        0.000030273634598        0.001784587201137
        0.285428350527590       -0.000010509171312        0.000030827193943        0.001801976462841
        0.287847234854095       -0.000010614004242        0.000031134566382        0.001804811120559
        0.290266119180600       -0.000010716990281        0.000031436773225        0.001807301709777
        0.292685003507105       -0.000010730019459        0.000031474848851        0.001794696377974
        0.295103887833610       -0.000010740521393        0.000031505767427        0.001781890306317
        0.297522772160115       -0.000010656212554        0.000031258312731        0.001753678225764
        0.299941656486620       -0.000010568707891        0.000031001744144        0.001725408528584
        0.302360540813125       -0.000010382923213        0.000030456622150        0.001681659171747
        0.304779425139630       -0.000010193298149        0.000029900499992        0.001637993386169
        0.307198309466135       -0.000009903410478        0.000029050005378        0.001579012281961
        0.309617193792640       -0.000009609073777        0.000028186729803        0.001520252330940
        0.312036078119145       -0.000009214057645        0.000027027855887        0.001446577277856
        0.314454962445650       -0.000008814031145        0.000025854559104        0.001373255768856
        0.316873846772155       -0.000008314528525        0.000024389190704        0.001285649501972
        0.319292731098660       -0.000007809512251        0.000022907927918        0.001198522504180
        0.321711615425165       -0.000007207871427        0.000021142955292        0.001097961935958
        0.324130499751670       -0.000006600281686        0.000019360816356        0.000997998353959
        0.326549384078175       -0.000005900568051        0.000017308166761        0.000885660561196
        0.328968268404680       -0.000005194547344        0.000015237305107        0.000774028275111
        0.331387152731185       -0.000004402525416        0.000012913889879        0.000651273453860
        0.333806037057690       -0.000003603923459        0.000010571466692        0.000529322445056
        0.336224921384195       -0.000002727009884        0.000007999043199        0.000397674101231
        0.338643805710700       -0.000001843335550        0.000005407086220        0.000266916828309
        0.341062690037205       -0.000000890523371        0.000002612035520        0.000128039513209
        0.343481574363710        0.000000069132185       -0.000000202786641       -0.000009871155725
        0.345900458690215        0.000001087377220       -0.000003189764168       -0.000154196219146
        0.348319343016720        0.000002112445438       -0.000006196449868       -0.000297491175513
        0.350738227343225        0.000003184315254       -0.000009340717148       -0.000445392198697
        0.353157111669730        0.000004262881771       -0.000012504317923       -0.000592211990402
        0.355575995996235        0.000005375381297       -0.000015767756956       -0.000741754055447
        0.357994880322740        0.000006494342516       -0.000019049836898       -0.000890176113274
        0.360413764649245        0.000007633467752       -0.000022391371181       -0.001039389518432
        0.362832648975750        0.000008778710157       -0.000025750532992       -0.001187456294501
        0.365251533302255        0.000009929646367       -0.000029126708900       -0.001334365375619
        0.367670417628760        0.000011086245951       -0.000032519178861       -0.001480112964184
        0.370089301955265        0.000012233582978       -0.000035884797169       -0.001622764953164
        0.372508186281770        0.000013386021766       -0.000039265060181       -0.001764251758268
        0.374927070608275        0.000014513983130       -0.000042573847942       -0.001900745240782
        0.377345954934780        0.000015646379453       -0.000045895322808       -0.002036080256277
        0.379764839261285        0.000016739061616       -0.000049100634966       -0.002164592798821
        0.382183723587790        0.000017835410499       -0.000052316379287       -0.002291963073858
        0.384602607914295        0.000018877028453       -0.000055371918786       -0.002410777604634
        0.387021492240800        0.000019921448280       -0.000058435352176       -0.002528474481876
        0.389440376567305        0.000020896583467       -0.000061295896839       -0.002636004030676
        0.391859260893810        0.000021873564899       -0.000064161530738       -0.002742447764842
        0.394278145220315        0.000022767411362       -0.000066783654933       -0.002837258193784
        0.396697029546820        0.000023662064428       -0.000069407817003       -0.002931020584398
        0.399115913873325        0.000024460669083       -0.000071750596055       -0.003011850973477
        0.401534798199830        0.000025258964305       -0.000074092137106       -0.003091675677464
        0.403953682526335        0.000025949457263       -0.000076117822538       -0.003157456066060
        0.406372566852840        0.000026638456755       -0.000078138794057       -0.003222276292528
        0.408791451179345        0.000027209267739       -0.000079813448086       -0.003272142519496
        0.411210335505850        0.000027777342314       -0.000081479738785       -0.003321095850106
        0.413629219832355        0.000028218399398       -0.000082773817042       -0.003354401280368
        0.416048104158860        0.000028655427919       -0.000084055737396       -0.003386841403526
        0.418466988485365        0.000028958335081       -0.000084944609565       -0.003403165377353
        0.420885872811870        0.000029255882531       -0.000085817414015       -0.003418670572133
        0.423304757138375        0.000029414072790       -0.000086281812991       -0.003417823463800
        0.425723641464880        0.000029565543854       -0.000086726150438       -0.003416201719838
        0.428142525791385        0.000029574405185       -0.000086752541703       -0.003398226544482
        0.430561410117890        0.000029575170512       -0.000086754825966       -0.003379517255399
        0.432980294444395        0.000029432142086       -0.000086335690078       -0.003344687815491
        0.435399178770900        0.000029279634813       -0.000085888383229       -0.003309160035773
        0.437818063097405        0.000028984271647       -0.000085022405709       -0.003257975651245
        0.440236947423910        0.000028678052233       -0.000084124208573       -0.003206122958681
        0.442655831750415        0.000028232056776       -0.000082816372931       -0.003139299876389
        0.445074716076920        0.000027773844710       -0.000081472318481       -0.003071831933416
        0.447493600403425        0.000027181064464       -0.000079733899673       -0.002990291561573
        0.449912484729930        0.000026574735929       -0.000077955346643       -0.002908122518454
        0.452331369056435        0.000025841126742       -0.000075803803881       -0.002812976679103
        0.454750253382940        0.000025092677875       -0.000073608329492       -0.002717210609075
        0.457169137709445        0.000024226233106       -0.000071067098970       -0.002609744046000
        0.459588022035950        0.000023343709060       -0.000068478291366       -0.002501657646540
        0.462006906362455        0.000022354355383       -0.000065576481132       -0.002383308066469
        0.464425790688960        0.000021347745961       -0.000062623633730       -0.002264330901123
        0.466844675015465        0.000020247207144       -0.000059395624560       -0.002136666862115
        0.469263559341970        0.000019128310330       -0.000056113336207       -0.002008359453235
        0.471682443668475        0.000017929940842       -0.000052598293945       -0.001873056445232
