#           time (fs)    |     mu_x (e.angstrom)   |     mu_y (e.angstrom)   |     mu_z (e.angstrom)   |
        0.000000000000000       -0.000000000000000       -0.000000000000000        0.000000000000000
        0.002418884326505        0.000000005429689       -0.000000000922645        0.000042821057143
        0.004837768653010        0.000000120954992       -0.000000020552312        0.000476931998519
        0.007256652979515        0.000000346332674       -0.000000058847913        0.000910386337887
        0.009675537306020        0.000000876814244       -0.000000148985603        0.001728587090826
        0.012094421632525        0.000001613751746       -0.000000274203876        0.002545077391079
        0.014513305959030        0.000002840528913       -0.000000482653865        0.003733125921483
        0.016932190285535        0.000004365900871       -0.000000741840311        0.004918028269724
        0.019351074612040        0.000006548953270       -0.000001112777258        0.006454870072880
        0.021769958938545        0.000009116283642       -0.000001549009294        0.007986772774483
        0.024188843265050        0.000012486028689       -0.000002121584071        0.009844885265373
        0.026607727591555        0.000016317410448       -0.000002772597493        0.011695940217091
        0.029026611918060        0.000021067188633       -0.000003579659610        0.013841784407170
        0.031445496244565        0.000026345926449       -0.000004476597630        0.015978165147688
        0.033864380571070        0.000032625351665       -0.000005543564376        0.018372737061979
        0.036283264897575        0.000039489501565       -0.000006709878813        0.020755195834601
        0.038702149224080        0.000047398834697       -0.000008053778064        0.023354668471536
        0.041121033550585        0.000055935795166       -0.000009504309042        0.025939183005801
        0.043539917877090        0.000065521476841       -0.000011133018962        0.028695628168211
        0.045958802203595        0.000075763762987       -0.000012873275627        0.031434127437985
        0.048377686530100        0.000087015216272       -0.000014784980246        0.034296305489563
        0.050796570856605        0.000098937523215       -0.000016810640746        0.037137462455442
        0.053215455183110        0.000111785309645       -0.000018993515811        0.040051666999509
        0.055634339509615        0.000125302943701       -0.000021290160079        0.042941745308516
        0.058053223836120        0.000139618327111       -0.000023722298641        0.045852688955855
        0.060472108162625        0.000154587054226       -0.000026265382638        0.048736429761076
        0.062890992489130        0.000170182996874       -0.000028914964735        0.051588156556625
        0.065309876815635        0.000186400327807       -0.000031670039631        0.054409691038816
        0.067728761142140        0.000203033912972       -0.000034495745259        0.057146500754489
        0.070147645468645        0.000220241814417       -0.000037418919857        0.059850273577894
        0.072566529795150        0.000237618059478       -0.000040370579193        0.062417642948785
        0.074985414121655        0.000255507050261       -0.000043409218729        0.064949331762840
        0.077404298448160        0.000273284044889       -0.000046428688513        0.067294817841990
        0.079823182774665        0.000291498607146       -0.000049522337878        0.069602234045334
        0.082242067101170        0.000309293883044       -0.000052544587980        0.071676345171903
        0.084660951427675        0.000327439090287       -0.000055626102570        0.073710301479833
        0.087079835754180        0.000344837102489       -0.000058580492144        0.075467321889406
        0.089498720080685        0.000362486340292       -0.000061577354987        0.077182452784079
        0.091917604407190        0.000379046915770       -0.000064389073428        0.078581207629388
        0.094336488733695        0.000395750546790       -0.000067224873054        0.079936729516040
        0.096755373060200        0.000411018134449       -0.000069816517182        0.080941278002011
        0.099174257386705        0.000426312938142       -0.000072412557027        0.081901676835360
        0.101593141713210        0.000439826475563       -0.000074705812688        0.082481922293065
        0.104012026039715        0.000453245674641       -0.000076982819610        0.083017557565367
        0.106430910366220        0.000464548871600       -0.000078900213270        0.083149764582391
        0.108849794692725        0.000475632542266       -0.000080780110250        0.083237379865582
        0.111268679019230        0.000484284369334       -0.000082246794126        0.082904590040382
        0.113687563345735        0.000492590021150       -0.000083654500308        0.082527721734082
        0.116106447672240        0.000498175183910       -0.000084600033372        0.081720061211151
        0.118525331998745        0.000503288287838       -0.000085465253436        0.080869338747504
        0.120944216325250        0.000505427463638       -0.000085825340028        0.079584212397590
        0.123363100651755        0.000506971703815       -0.000086084304476        0.078257544871321
        0.125781984978260        0.000505331318697       -0.000085802452561        0.076499713782274
        0.128200869304765        0.000502978344799       -0.000085399570847        0.074702359784687
        0.130619753631270        0.000497279673365       -0.000084428632928        0.072483900596439
        0.133038637957775        0.000490758136261       -0.000083318022504        0.070228419907323
        0.135457522284280        0.000480785516830       -0.000081621584002        0.067568566429023
        0.137876406610785        0.000469889180489       -0.000079768440276        0.064874654129743
        0.140295290937290        0.000455497151817       -0.000077322022726        0.061799523586191
        0.142714175263795        0.000440091889111       -0.000074703797555        0.058693729068122
        0.145133059590300        0.000421211073104       -0.000071495847193        0.055235937203327
        0.147551943916805        0.000401240572008       -0.000068103206922        0.051751272424829
        0.149970828243310        0.000377882148914       -0.000064135843131        0.047949443509413
        0.152389712569815        0.000353372178394       -0.000059973381152        0.044124886668439
        0.154808596896320        0.000325630826653       -0.000055262883698        0.040023066182367
        0.157227481222825        0.000296691937879       -0.000050349567092        0.035902968688322
        0.159646365549330        0.000264747139585       -0.000044926586039        0.031549948050403
        0.162065249875835        0.000231575707547       -0.000039295920901        0.027183354267847
        0.164484134202340        0.000195691351940       -0.000033205398441        0.022631918430563
        0.166903018528845        0.000158568894494       -0.000026905303903        0.018071809101236
        0.169321902855350        0.000119091145355       -0.000020206102996        0.013377919098927
        0.171740787181855        0.000078381890702       -0.000013298489692        0.008680390603200
        0.174159671508360        0.000035735318357       -0.000006062730259        0.003902314212269
        0.176578555834865       -0.000008117972854        0.000001377215153       -0.000874293114179
        0.178997440161370       -0.000053435958667        0.000009065105876       -0.005676888589814
        0.181416324487875       -0.000099917874647        0.000016949922585       -0.010472899030197
        0.183835208814380       -0.000147344219318        0.000024994432991       -0.015239877210068
        0.186254093140885       -0.000195874204230        0.000033225660865       -0.019995210469243
        0.188672977467390       -0.000244788923772        0.000041521673032       -0.024666904559068
        0.191091861793895       -0.000294730298292        0.000049991381268       -0.029322013762831
        0.193510746120400       -0.000344466576187        0.000058425880462       -0.033840158262482
        0.195929630446905       -0.000395136926132        0.000067018425505       -0.038336959995971
        0.198348514773410       -0.000444992420949        0.000075472412409       -0.042645600390595
        0.200767399099915       -0.000495675177884        0.000084066395560       -0.046928381739023
        0.203186283426420       -0.000544924343121        0.000092416967954       -0.050974747460258
        0.205605167752925       -0.000594881353212        0.000100887358542       -0.054991035380141
        0.208024052079430       -0.000642788546385        0.000109009925127       -0.058726361912736
        0.210442936405935       -0.000691273399837        0.000117230311226       -0.062427740865701
        0.212861820732440       -0.000737106537558        0.000125000896968       -0.065808027693561
        0.215280705058945       -0.000783378411268        0.000132845822350       -0.069150892308508
        0.217699589385450       -0.000826422911416        0.000140143422122       -0.072137584430703
        0.220118473711955       -0.000869760662518        0.000147490765645       -0.075083815010831
        0.222537358038460       -0.000909333403987        0.000154199701159       -0.077644396996163
        0.224956242364965       -0.000949049642072        0.000160933053117       -0.080161946938372
        0.227375126691470       -0.000984512667245        0.000166945287174       -0.082270439906740
        0.229794011017975       -0.001019967528502        0.000172956276286       -0.084333825531897
        0.232212895344480       -0.001050741213745        0.000178173638333       -0.085971179028502
        0.234631779670985       -0.001081355561192        0.000183364163118       -0.087561863908001
        0.237050663997490       -0.001106930986239        0.000187700440916       -0.088716236345808
        0.239469548323995       -0.001132198766635        0.000191984760156       -0.089822903925780
        0.241888432650500       -0.001152149024751        0.000195367614077       -0.090489827083257
        0.244307316977005       -0.001171648524538        0.000198674252886       -0.091108537222931
        0.246726201303510       -0.001185638731479        0.000201046911940       -0.091290962166613
        0.249145085630015       -0.001199042490979        0.000203320342699       -0.091425189090331
        0.251563969956520       -0.001206838271813        0.000204643044782       -0.091133412812657
        0.253982854283025       -0.001213921438612        0.000205845105654       -0.090793963893289
        0.256401738609530       -0.001215395696843        0.000206096248667       -0.090045437882605
        0.258820622936035       -0.001216042625289        0.000206207266727       -0.089250254595105
        0.261239507262540       -0.001211180428155        0.000205384242064       -0.088069278454467
        0.263658391589045       -0.001205389361815        0.000204403832991       -0.086843122730353
        0.266077275915550       -0.001194290808326        0.000202523518328       -0.085260427804074
        0.268496160242055       -0.001182176515435        0.000200471040164       -0.083634458850550
        0.270915044568560       -0.001165057489286        0.000197569934469       -0.081686688573638
        0.273333928895065       -0.001146851757162        0.000194484578975       -0.079697936967158
        0.275752813221570       -0.001124042504345        0.000190618568997       -0.077427032297124
        0.278171697548075       -0.001100092436784        0.000186559080609       -0.075117779795159
        0.280590581874580       -0.001072033947013        0.000181802834795       -0.072570279594975
        0.283009466201085       -0.001042798048247        0.000176846853885       -0.069987354609369
        0.285428350527590       -0.001010036259469        0.000171292846535       -0.067213622204779
        0.287847234854095       -0.000976078328736        0.000165535880637       -0.064407622225658
        0.290266119180600       -0.000939256214527        0.000159293056054       -0.061461010542229
        0.292685003507105       -0.000901237116042        0.000152847089698       -0.058485463975927
        0.295103887833610       -0.000861084755857        0.000146039182997       -0.055421432656394
        0.297522772160115       -0.000819752169374        0.000139030943755       -0.052331913529227
        0.299941656486620       -0.000777074940867        0.000131794481792       -0.049207112226993
        0.302360540813125       -0.000733251237460        0.000124363386949       -0.046060321995652
        0.304779425139630       -0.000688916307790        0.000116845399303       -0.042931654624531
        0.307198309466135       -0.000643484733316        0.000109141214077       -0.039784485911495
        0.309617193792640       -0.000598406061808        0.000101496690163       -0.036708170995090
        0.312036078119145       -0.000552295446056        0.000093676934557       -0.033616768422948
        0.314454962445650       -0.000507417543224        0.000086066068561       -0.030647410820914
        0.316873846772155       -0.000461585785356        0.000078293215499       -0.027666244243582
        0.319292731098660       -0.000417866502378        0.000070878485829       -0.024855933429322
        0.321711615425165       -0.000373283112223        0.000063316998231       -0.022036898742894
        0.324130499751670       -0.000331675759829        0.000056260132439       -0.019434348463039
        0.326549384078175       -0.000289303759222        0.000049073391062       -0.016825910818969
        0.328968268404680       -0.000250738875033        0.000042532270599       -0.014475654376712
        0.331387152731185       -0.000211516382974        0.000035879447823       -0.012122048012680
        0.333806037057690       -0.000176883480873        0.000030005009451       -0.010063702585993
        0.336224921384195       -0.000141705320303        0.000024037946519       -0.008004200636514
        0.338643805710700       -0.000111834964017        0.000018971138619       -0.006271812973867
        0.341062690037205       -0.000081534635806        0.000013831285132       -0.004540079529970
        0.343481574363710       -0.000057181180969        0.000009700137464       -0.003161564071370
        0.345900458690215       -0.000032513551925        0.000005515612077       -0.001785099438440
        0.348319343016720       -0.000014338896270        0.000002432476676       -0.000781778405093
        0.350738227343225        0.000004036057679       -0.000000684693063        0.000218533021393
        0.353157111669730        0.000015477387968       -0.000002625674166        0.000832279716579
        0.355575995996235        0.000027009454944       -0.000004582077141        0.001442511251508
        0.357994880322740        0.000031283573132       -0.000005307224885        0.001659480268949
        0.360413764649245        0.000035545485963       -0.000006030304514        0.001872888575669
        0.362832648975750        0.000032350482497       -0.000005488328282        0.001693167557236
        0.365251533302255        0.000029049124216       -0.000004928285552        0.001510298269421
        0.367670417628760        0.000018224221251       -0.000003091838298        0.000941258411686
        0.370089301955265        0.000007209605262       -0.000001223157362        0.000369929946504
        0.372508186281770       -0.000011258088011        0.000001910016164       -0.000573903143852
        0.374927070608275       -0.000029986275342        0.000005087455760       -0.001518737278816
        0.377345954934780       -0.000055957580661        0.000009493807170       -0.002815932238993
        0.379764839261285       -0.000082246044565        0.000013954060359       -0.004112440258467
        0.382183723587790       -0.000115428234099        0.000019583983908       -0.005735023880652
        0.384602607914295       -0.000148968866204        0.000025274832961       -0.007354867237512
        0.387021492240800       -0.000188916963017        0.000032052883468       -0.009268797430438
        0.389440376567305       -0.000229248440273        0.000038896106444       -0.011177610683126
        0.391859260893810       -0.000275369328477        0.000046721693819       -0.013343350450742
        0.394278145220315       -0.000321881539142        0.000054613812627       -0.015501321327597
        0.396697029546820       -0.000373440860935        0.000063362369305       -0.017874504065777
        0.399115913873325       -0.000425382128911        0.000072175872682       -0.020237043931679
        0.401534798199830       -0.000481513894344        0.000081700481579       -0.022769218866539
        0.403953682526335       -0.000538000921911        0.000091285509660       -0.025287712346392
        0.406372566852840       -0.000597719707110        0.000101418971814       -0.027927157669977
        0.408791451179345       -0.000657750106055        0.000111605440478       -0.030549778941036
        0.411210335505850       -0.000719965667516        0.000122162753373       -0.033242369156844
        0.413629219832355       -0.000782432900829        0.000132762888449       -0.035914951401551
        0.416048104158860       -0.000845966988222        0.000143544098351       -0.038605064582854
        0.418466988485365       -0.000909677499569        0.000154355342106       -0.041272008303845
        0.420885872811870       -0.000973282607855        0.000165148726613       -0.043903458396358
        0.423304757138375       -0.001036974874673        0.000175956971864       -0.046508663739664
        0.425723641464880       -0.001099354638860        0.000186542502465       -0.049025642707172
        0.428142525791385       -0.001161719847743        0.000197125603281       -0.051513450618696
        0.430561410117890       -0.001221550750898        0.000207278632061       -0.053861465133133
        0.432980294444395       -0.001281254761453        0.000217410134401       -0.056177592085183
        0.435399178770900       -0.001337208798961        0.000226905244237       -0.058304379596731
        0.437818063097405       -0.001392915034993        0.000236358275127       -0.060396830761904
        0.440236947423910       -0.001443682956033        0.000244973228888       -0.062253240143833
        0.442655831750415       -0.001494075841189        0.000253524478932       -0.064073186257841
        0.445074716076920       -0.001538390572289        0.000261044200331       -0.065614008798086
        0.447493600403425       -0.001582199111462        0.000268477931583       -0.067116612535329
        0.449912484729930       -0.001618858957079        0.000274698448574       -0.068301349834226
        0.452331369056435       -0.001654880055390        0.000280810458080       -0.069446528312977
        0.454750253382940       -0.001682771267066        0.000285542739035       -0.070240084635241
        0.457169137709445       -0.001709892375273        0.000290144207808       -0.070993195665104
        0.459588022035950       -0.001728010684216        0.000293217821234       -0.071366483473394
        0.462006906362455       -0.001745231363244        0.000296138979046       -0.071698924345829
        0.464425790688960       -0.001752702081323        0.000297405509325       -0.071629373100562
        0.466844675015465       -0.001759154089415        0.000298499047561       -0.071519082091219
        0.469263559341970       -0.001755250400612        0.000297835202122       -0.070991041921081
        0.471682443668475       -0.001750215924366        0.000296979369991       -0.070422894204413
