#     time (fs)  |  E_x (eV/ang)  | E_y (eV/ang) | E_z (eV/ang)
     0.00000000     0.00000000     0.00000000     2.31366821
     0.00241888     0.06034875     0.00000000     2.31288102
     0.00483777     0.12065643     0.00000000     2.31051999
     0.00725665     0.18088202     0.00000000     2.30658671
     0.00967554     0.24098451     0.00000000     2.30108388
     0.01209442     0.30092303     0.00000000     2.29401524
     0.01451331     0.36065677     0.00000000     2.28538558
     0.01693219     0.42014510     0.00000000     2.27520080
     0.01935107     0.47934754     0.00000000     2.26346781
     0.02176996     0.53822379     0.00000000     2.25019460
     0.02418884     0.59673380     0.00000000     2.23539020
     0.02660773     0.65483775     0.00000000     2.21906469
     0.02902661     0.71249611     0.00000000     2.20122917
     0.03144550     0.76966963     0.00000000     2.18189579
     0.03386438     0.82631941     0.00000000     2.16107770
     0.03628326     0.88240691     0.00000000     2.13878905
     0.03870215     0.93789396     0.00000000     2.11504503
     0.04112103     0.99274281     0.00000000     2.08986179
     0.04353992     1.04691612     0.00000000     2.06325646
     0.04595880     1.10037704     0.00000000     2.03524715
     0.04837769     1.15308918     0.00000000     2.00585291
     0.05079657     1.20501669     0.00000000     1.97509376
     0.05321546     1.25612422     0.00000000     1.94299061
     0.05563434     1.30637699     0.00000000     1.90956533
     0.05805322     1.35574082     0.00000000     1.87484064
     0.06047211     1.40418210     0.00000000     1.83884018
     0.06289099     1.45166789     0.00000000     1.80158844
     0.06530988     1.49816586     0.00000000     1.76311079
     0.06772876     1.54364437     0.00000000     1.72343339
     0.07014765     1.58807248     0.00000000     1.68258324
     0.07256653     1.63141996     0.00000000     1.64058815
     0.07498541     1.67365731     0.00000000     1.59747670
     0.07740430     1.71475578     0.00000000     1.55327820
     0.07982318     1.75468742     0.00000000     1.50802276
     0.08224207     1.79342505     0.00000000     1.46174114
     0.08466095     1.83094231     0.00000000     1.41446486
     0.08707984     1.86721366     0.00000000     1.36622608
     0.08949872     1.90221444     0.00000000     1.31705763
     0.09191760     1.93592082     0.00000000     1.26699296
     0.09433649     1.96830987     0.00000000     1.21606614
     0.09675537     1.99935954     0.00000000     1.16431182
     0.09917426     2.02904871     0.00000000     1.11176523
     0.10159314     2.05735717     0.00000000     1.05846211
     0.10401203     2.08426567     0.00000000     1.00443875
     0.10643091     2.10975589     0.00000000     0.94973189
     0.10884979     2.13381049     0.00000000     0.89437877
     0.11126868     2.15641309     0.00000000     0.83841706
     0.11368756     2.17754832     0.00000000     0.78188482
     0.11610645     2.19720180     0.00000000     0.72482054
     0.11852533     2.21536015     0.00000000     0.66726305
     0.12094422     2.23201102     0.00000000     0.60925150
     0.12336310     2.24714307     0.00000000     0.55082537
     0.12578198     2.26074601     0.00000000     0.49202442
     0.12820087     2.27281059     0.00000000     0.43288867
     0.13061975     2.28332859     0.00000000     0.37345835
     0.13303864     2.29229285     0.00000000     0.31377390
     0.13545752     2.29969728     0.00000000     0.25387594
     0.13787641     2.30553684     0.00000000     0.19380522
     0.14029529     2.30980755     0.00000000     0.13360263
     0.14271418     2.31250651     0.00000000     0.07330912
     0.14513306     2.31363188     0.00000000     0.01296573
     0.14755194     2.31318289     0.00000000    -0.04738648
     0.14997083     2.31115986     0.00000000    -0.10770645
     0.15238971     2.30756415     0.00000000    -0.16795313
     0.15480860     2.30239822     0.00000000    -0.22808552
     0.15722748     2.29566558     0.00000000    -0.28806271
     0.15964637     2.28737081     0.00000000    -0.34784387
     0.16206525     2.27751955     0.00000000    -0.40738835
     0.16448413     2.26611852     0.00000000    -0.46665560
     0.16690302     2.25317545     0.00000000    -0.52560531
     0.16932190     2.23869918     0.00000000    -0.58419737
     0.17174079     2.22269954     0.00000000    -0.64239189
     0.17415967     2.20518742     0.00000000    -0.70014929
     0.17657856     2.18617474     0.00000000    -0.75743026
     0.17899744     2.16567443     0.00000000    -0.81419582
     0.18141632     2.14370045     0.00000000    -0.87040734
     0.18383521     2.12026775     0.00000000    -0.92602658
     0.18625409     2.09539228     0.00000000    -0.98101569
     0.18867298     2.06909095     0.00000000    -1.03533725
     0.19109186     2.04138167     0.00000000    -1.08895429
     0.19351075     2.01228330     0.00000000    -1.14183033
     0.19592963     1.98181563     0.00000000    -1.19392940
     0.19834851     1.94999939     0.00000000    -1.24521603
     0.20076740     1.91685624     0.00000000    -1.29565533
     0.20318628     1.88240873     0.00000000    -1.34521297
     0.20560517     1.84668030     0.00000000    -1.39385525
     0.20802405     1.80969526     0.00000000    -1.44154904
     0.21044294     1.77147878     0.00000000    -1.48826191
     0.21286182     1.73205686     0.00000000    -1.53396206
     0.21528071     1.69145634     0.00000000    -1.57861840
     0.21769959     1.64970482     0.00000000    -1.62220053
     0.22011847     1.60683074     0.00000000    -1.66467881
     0.22253736     1.56286326     0.00000000    -1.70602433
     0.22495624     1.51783230     0.00000000    -1.74620895
     0.22737513     1.47176850     0.00000000    -1.78520533
     0.22979401     1.42470320     0.00000000    -1.82298693
     0.23221290     1.37666844     0.00000000    -1.85952805
     0.23463178     1.32769690     0.00000000    -1.89480382
     0.23705066     1.27782191     0.00000000    -1.92879023
     0.23946955     1.22707740     0.00000000    -1.96146416
     0.24188843     1.17549789     0.00000000    -1.99280337
     0.24430732     1.12311850     0.00000000    -2.02278654
     0.24672620     1.06997486     0.00000000    -2.05139327
     0.24914509     1.01610314     0.00000000    -2.07860410
     0.25156397     0.96153999     0.00000000    -2.10440049
     0.25398285     0.90632254     0.00000000    -2.12876491
     0.25640174     0.85048837     0.00000000    -2.15168076
     0.25882062     0.79407547     0.00000000    -2.17313247
     0.26123951     0.73712222     0.00000000    -2.19310543
     0.26365839     0.67966738     0.00000000    -2.21158604
     0.26607728     0.62175006     0.00000000    -2.22856174
     0.26849616     0.56340965     0.00000000    -2.24402098
     0.27091504     0.50468585     0.00000000    -2.25795322
     0.27333393     0.44561864     0.00000000    -2.27034901
     0.27575281     0.38624819     0.00000000    -2.28119988
     0.27817170     0.32661492     0.00000000    -2.29049848
     0.28059058     0.26675939     0.00000000    -2.29823846
     0.28300947     0.20672234     0.00000000    -2.30441456
     0.28542835     0.14654463     0.00000000    -2.30902257
     0.28784723     0.08626719     0.00000000    -2.31205937
     0.29026612     0.02593106     0.00000000    -2.31352289
     0.29268500    -0.03442273    -0.00000000    -2.31341212
     0.29510389    -0.09475308    -0.00000000    -2.31172715
     0.29752277    -0.15501897    -0.00000000    -2.30846912
     0.29994166    -0.21517936    -0.00000000    -2.30364025
     0.30236054    -0.27519334    -0.00000000    -2.29724383
     0.30477943    -0.33502005    -0.00000000    -2.28928420
     0.30719831    -0.39461879    -0.00000000    -2.27976678
     0.30961719    -0.45394901    -0.00000000    -2.26869806
     0.31203608    -0.51297033    -0.00000000    -2.25608555
     0.31445496    -0.57164259    -0.00000000    -2.24193785
     0.31687385    -0.62992586    -0.00000000    -2.22626458
     0.31929273    -0.68778049    -0.00000000    -2.20907641
     0.32171162    -0.74516710    -0.00000000    -2.19038503
     0.32413050    -0.80204665    -0.00000000    -2.17020316
     0.32654938    -0.85838044    -0.00000000    -2.14854453
     0.32896827    -0.91413012    -0.00000000    -2.12542389
     0.33138715    -0.96925777    -0.00000000    -2.10085696
     0.33380604    -1.02372586    -0.00000000    -2.07486046
     0.33622492    -1.07749735    -0.00000000    -2.04745209
     0.33864381    -1.13053563    -0.00000000    -2.01865048
     0.34106269    -1.18280461    -0.00000000    -1.98847525
     0.34348157    -1.23426873    -0.00000000    -1.95694693
     0.34590046    -1.28489297    -0.00000000    -1.92408696
     0.34831934    -1.33464289    -0.00000000    -1.88991771
     0.35073823    -1.38348461    -0.00000000    -1.85446243
     0.35315711    -1.43138492    -0.00000000    -1.81774524
     0.35557600    -1.47831122    -0.00000000    -1.77979114
     0.35799488    -1.52423157    -0.00000000    -1.74062595
     0.36041376    -1.56911473    -0.00000000    -1.70027631
     0.36283265    -1.61293016    -0.00000000    -1.65876969
     0.36525153    -1.65564804    -0.00000000    -1.61613432
     0.36767042    -1.69723930    -0.00000000    -1.57239923
     0.37008930    -1.73767564    -0.00000000    -1.52759417
     0.37250819    -1.77692955    -0.00000000    -1.48174963
     0.37492707    -1.81497431    -0.00000000    -1.43489680
     0.37734595    -1.85178404    -0.00000000    -1.38706757
     0.37976484    -1.88733369    -0.00000000    -1.33829448
     0.38218372    -1.92159906    -0.00000000    -1.28861073
     0.38460261    -1.95455685    -0.00000000    -1.23805012
     0.38702149    -1.98618462    -0.00000000    -1.18664705
     0.38944038    -2.01646086    -0.00000000    -1.13443651
     0.39185926    -2.04536495    -0.00000000    -1.08145401
     0.39427815    -2.07287724    -0.00000000    -1.02773562
     0.39669703    -2.09897900    -0.00000000    -0.97331789
     0.39911591    -2.12365247    -0.00000000    -0.91823785
     0.40153480    -2.14688086    -0.00000000    -0.86253297
     0.40395368    -2.16864837    -0.00000000    -0.80624117
     0.40637257    -2.18894018    -0.00000000    -0.74940075
     0.40879145    -2.20774248    -0.00000000    -0.69205038
     0.41121034    -2.22504248    -0.00000000    -0.63422909
     0.41362922    -2.24082841    -0.00000000    -0.57597623
     0.41604810    -2.25508952    -0.00000000    -0.51733144
     0.41846699    -2.26781612    -0.00000000    -0.45833461
     0.42088587    -2.27899954    -0.00000000    -0.39902591
     0.42330476    -2.28863217    -0.00000000    -0.33944568
     0.42572364    -2.29670746    -0.00000000    -0.27963447
     0.42814253    -2.30321991    -0.00000000    -0.21963297
     0.43056141    -2.30816509    -0.00000000    -0.15948203
     0.43298029    -2.31153963    -0.00000000    -0.09922256
     0.43539918    -2.31334124    -0.00000000    -0.03889557
     0.43781806    -2.31356870     0.00000000     0.02145789
     0.44023695    -2.31222185     0.00000000     0.08179674
     0.44265583    -2.30930160     0.00000000     0.14207994
     0.44507472    -2.30480994     0.00000000     0.20226645
     0.44749360    -2.29874993     0.00000000     0.26231533
     0.44991248    -2.29112569     0.00000000     0.32218571
     0.45233137    -2.28194242     0.00000000     0.38183685
     0.45475025    -2.27120635     0.00000000     0.44122816
     0.45716914    -2.25892480     0.00000000     0.50031923
     0.45958802    -2.24510612     0.00000000     0.55906985
     0.46200691    -2.22975971     0.00000000     0.61744004
     0.46442579    -2.21289602     0.00000000     0.67539009
     0.46684468    -2.19452653     0.00000000     0.73288055
     0.46926356    -2.17466373     0.00000000     0.78987230
     0.47168244    -2.15332113     0.00000000     0.84632658
     0.47410133    -2.13051327     0.00000000     0.90220495
     0.47652021    -2.10625566     0.00000000     0.95746940
     0.47893910    -2.08056481     0.00000000     1.01208233
     0.48135798    -2.05345820     0.00000000     1.06600656
     0.48377687    -2.02495428     0.00000000     1.11920541
     0.48619575    -1.99507243     0.00000000     1.17164268
     0.48861463    -1.96383301     0.00000000     1.22328268
     0.49103352    -1.93125725     0.00000000     1.27409027
     0.49345240    -1.89736733     0.00000000     1.32403088
     0.49587129    -1.86218632     0.00000000     1.37307053
     0.49829017    -1.82573814     0.00000000     1.42117585
     0.50070906    -1.78804761     0.00000000     1.46831411
     0.50312794    -1.74914037     0.00000000     1.51445322
     0.50554682    -1.70904289     0.00000000     1.55956179
     0.50796571    -1.66778246     0.00000000     1.60360914
     0.51038459    -1.62538715     0.00000000     1.64656527
     0.51280348    -1.58188582     0.00000000     1.68840097
     0.51522236    -1.53730807     0.00000000     1.72908776
     0.51764125    -1.49168422     0.00000000     1.76859796
     0.52006013    -1.44504533     0.00000000     1.80690469
     0.52247901    -1.39742314     0.00000000     1.84398188
     0.52489790    -1.34885004     0.00000000     1.87980429
     0.52731678    -1.29935908     0.00000000     1.91434755
     0.52973567    -1.24898396     0.00000000     1.94758816
     0.53215455    -1.19775894     0.00000000     1.97950350
     0.53457344    -1.14571888     0.00000000     2.01007184
     0.53699232    -1.09289920     0.00000000     2.03927240
     0.53941120    -1.03933583     0.00000000     2.06708529
     0.54183009    -0.98506523     0.00000000     2.09349160
     0.54424897    -0.93012432     0.00000000     2.11847335
     0.54666786    -0.87455049     0.00000000     2.14201354
     0.54908674    -0.81838156     0.00000000     2.16409616
     0.55150563    -0.76165574     0.00000000     2.18470618
     0.55392451    -0.70441164     0.00000000     2.20382958
     0.55634340    -0.64668821     0.00000000     2.22145334
     0.55876228    -0.58852473     0.00000000     2.23756547
     0.56118116    -0.52996077     0.00000000     2.25215500
     0.56360005    -0.47103620     0.00000000     2.26521202
     0.56601893    -0.41179109     0.00000000     2.27672762
     0.56843782    -0.35226578     0.00000000     2.28669399
     0.57085670    -0.29250076     0.00000000     2.29510433
     0.57327559    -0.23253670     0.00000000     2.30195292
     0.57569447    -0.17241441     0.00000000     2.30723511
     0.57811335    -0.11217480     0.00000000     2.31094729
     0.58053224    -0.05185886     0.00000000     2.31308695
     0.58295112     0.00849238     0.00000000     2.31365262
     0.58537001     0.06883783     0.00000000     2.31264393
     0.58778889     0.12913644     0.00000000     2.31006155
     0.59020778     0.18934718     0.00000000     2.30590724
     0.59262666     0.24942908     0.00000000     2.30018384
     0.59504554     0.30934124     0.00000000     2.29289524
     0.59746443     0.36904291     0.00000000     2.28404639
     0.59988331     0.42849346     0.00000000     2.27364332
     0.60230220     0.48765243     0.00000000     2.26169310
     0.60472108     0.54647956     0.00000000     2.24820388
     0.60713997     0.60493484     0.00000000     2.23318482
     0.60955885     0.66297847     0.00000000     2.21664614
     0.61197773     0.72057097     0.00000000     2.19859911
     0.61439662     0.77767315     0.00000000     2.17905600
     0.61681550     0.83424614     0.00000000     2.15803011
     0.61923439     0.89025145     0.00000000     2.13553575
     0.62165327     0.94565097     0.00000000     2.11158822
     0.62407216     1.00040701     0.00000000     2.08620382
     0.62649104     1.05448230     0.00000000     2.05939983
     0.62890992     1.10784005     0.00000000     2.03119448
     0.63132881     1.16044395     0.00000000     2.00160696
     0.63374769     1.21225820     0.00000000     1.97065741
     0.63616658     1.26324755     0.00000000     1.93836689
     0.63858546     1.31337730     0.00000000     1.90475737
     0.64100435     1.36261333     0.00000000     1.86985173
     0.64342323     1.41092215     0.00000000     1.83367370
     0.64584212     1.45827088     0.00000000     1.79624792
     0.64826100     1.50462731     0.00000000     1.75759985
     0.65067988     1.54995988     0.00000000     1.71775579
     0.65309877     1.59423775     0.00000000     1.67674285
     0.65551765     1.63743079     0.00000000     1.63458893
     0.65793654     1.67950961     0.00000000     1.59132273
     0.66035542     1.72044558     0.00000000     1.54697369
     0.66277431     1.76021084     0.00000000     1.50157197
     0.66519319     1.79877832     0.00000000     1.45514849
     0.66761207     1.83612180     0.00000000     1.40773482
     0.67003096     1.87221585     0.00000000     1.35936323
     0.67244984     1.90703592     0.00000000     1.31006663
     0.67486873     1.94055831     0.00000000     1.25987858
     0.67728761     1.97276021     0.00000000     1.20883321
     0.67970650     2.00361970     0.00000000     1.15696528
     0.68212538     2.03311580     0.00000000     1.10431006
     0.68454426     2.06122842     0.00000000     1.05090340
     0.68696315     2.08793845     0.00000000     0.99678163
     0.68938203     2.11322769     0.00000000     0.94198158
     0.69180092     2.13707895     0.00000000     0.88654054
     0.69421980     2.15947599     0.00000000     0.83049624
     0.69663869     2.18040358     0.00000000     0.77388681
     0.69905757     2.19984747     0.00000000     0.71675078
     0.70147645     2.21779443     0.00000000     0.65912702
     0.70389534     2.23423226     0.00000000     0.60105474
     0.70631422     2.24914975     0.00000000     0.54257346
     0.70873311     2.26253677     0.00000000     0.48372298
     0.71115199     2.27438421     0.00000000     0.42454335
     0.71357088     2.28468399     0.00000000     0.36507482
     0.71598976     2.29342912     0.00000000     0.30535787
     0.71840864     2.30061365     0.00000000     0.24543313
     0.72082753     2.30623267     0.00000000     0.18534139
     0.72324641     2.31028238     0.00000000     0.12512352
     0.72566530     2.31276001     0.00000000     0.06482052
     0.72808418     2.31366388     0.00000000     0.00447340
     0.73050307     2.31299338     0.00000000    -0.05587676
     0.73292195     2.31074895     0.00000000    -0.11618890
     0.73534084     2.30693213     0.00000000    -0.17642197
     0.73775972     2.30154552     0.00000000    -0.23653499
     0.74017860     2.29459277     0.00000000    -0.29648706
     0.74259749     2.28607863     0.00000000    -0.35623738
     0.74501637     2.27600888     0.00000000    -0.41574529
     0.74743526     2.26439038     0.00000000    -0.47497030
     0.74985414     2.25123103     0.00000000    -0.53387211
     0.75227303     2.23653979     0.00000000    -0.59241063
     0.75469191     2.22032665     0.00000000    -0.65054604
     0.75711079     2.20260265     0.00000000    -0.70823877
     0.75952968     2.18337984     0.00000000    -0.76544957
     0.76194856     2.16267132     0.00000000    -0.82213950
     0.76436745     2.14049116     0.00000000    -0.87826999
     0.76678633     2.11685447     0.00000000    -0.93380284
     0.76920522     2.09177732     0.00000000    -0.98870027
     0.77162410     2.06527678     0.00000000    -1.04292492
     0.77404298     2.03737089     0.00000000    -1.09643990
     0.77646187     2.00807862     0.00000000    -1.14920878
     0.77888075     1.97741993     0.00000000    -1.20119566
     0.78129964     1.94541566     0.00000000    -1.25236516
     0.78371852     1.91208759     0.00000000    -1.30268247
     0.78613741     1.87745841     0.00000000    -1.35211334
