#           time (fs)    |     mu_x (e.angstrom)   |     mu_y (e.angstrom)   |     mu_z (e.angstrom)   |
        0.000000000000000       -0.000000000000000       -0.000000000000000        0.000000000000000
        0.002418884326505        0.000000003638315        0.000000003972784        0.000044525459468
        0.004837768653010        0.000000161183223        0.000000176008336        0.000986420900296
        0.007256652979515        0.000000472356144        0.000000515798761        0.001927292268743
        0.009675537306020        0.000001225410474        0.000001338116132        0.003750205130317
        0.012094421632525        0.000002274853268        0.000002484071513        0.005569879679296
        0.014513305959030        0.000004038452224        0.000004409874351        0.008240601072570
        0.016932190285535        0.000006234318527        0.000006807673708        0.010904744045664
        0.019351074612040        0.000009390869678        0.000010254516910        0.014373813920509
        0.021769958938545        0.000013105561676        0.000014310765294        0.017831923287108
        0.024188843265050        0.000017992356751        0.000019646882559        0.022034510413013
        0.026607727591555        0.000023550270095        0.000025715681947        0.026220820058360
        0.029026611918060        0.000030448150616        0.000033247549705        0.031077864817607
        0.031445496244565        0.000038114631361        0.000041618369367        0.035912507007575
        0.033864380571070        0.000047238079283        0.000051579804237        0.041332103565447
        0.036283264897575        0.000057209853840        0.000062466939064        0.046722506770044
        0.038702149224080        0.000068698737058        0.000075009986323        0.052601497012098
        0.041121033550585        0.000081096033948        0.000088543850933        0.058443991240997
        0.043539917877090        0.000095009190689        0.000103731676515        0.064669739583337
        0.045958802203595        0.000109869726943        0.000119952137585        0.070851338345448
        0.048377686530100        0.000126180524878        0.000137754087710        0.077303654164935
        0.050796570856605        0.000143455482302        0.000156605988500        0.083703980017362
        0.053215455183110        0.000162049439671        0.000176894930536        0.090257152964383
        0.055634339509615        0.000181601508779        0.000198225911512        0.096750472310129
        0.058053223836120        0.000202276017672        0.000220777918691        0.103275385116396
        0.060472108162625        0.000223879541462        0.000244338587776        0.109732717374010
        0.062890992489130        0.000246345688956        0.000268834980003        0.116099000807073
        0.065309876815635        0.000269688895913        0.000294281436404        0.122390267172542
        0.067728761142140        0.000293575337874        0.000320313140561        0.128468462410561
        0.070147645468645        0.000318264614351        0.000347211808114        0.134464640050445
        0.072566529795150        0.000343123419792        0.000374285954716        0.140128334819451
        0.074985414121655        0.000368689536428        0.000402120634882        0.145703583348175
        0.077404298448160        0.000394003887331        0.000429669264035        0.150831489563824
        0.079823182774665        0.000419910062238        0.000457850275406        0.155865217964338
        0.082242067101170        0.000445103664392        0.000485240984174        0.160343160258096
        0.084660951427675        0.000470755317093        0.000513116214973        0.164722003926900
        0.087079835754180        0.000495203351205        0.000539664540637        0.168444790250210
        0.089498720080685        0.000519959375163        0.000566532203351        0.172064469539699
        0.091917604407190        0.000543000793666        0.000591515502831        0.174937616999039
        0.094336488733695        0.000566186151101        0.000616638346168        0.177704650478593
        0.096755373060200        0.000587137104233        0.000639310901452        0.179645941659717
        0.099174257386705        0.000608056524397        0.000661931604481        0.181479189335511
        0.101593141713210        0.000626224678749        0.000681540657451        0.182420036650438
        0.104012026039715        0.000644177219604        0.000700898104572        0.183252050605733
        0.106430910366220        0.000658876713484        0.000716700502735        0.183138648679890
        0.108849794692725        0.000673170926884        0.000732046616545        0.182916811065548
        0.111268679019230        0.000683737689561        0.000743325734332        0.181711059917247
        0.113687563345735        0.000693707111908        0.000753942527056        0.180398490978046
        0.116106447672240        0.000699514258623        0.000760025116130        0.178078675764070
        0.118525331998745        0.000704532933166        0.000765241609803        0.175654897660715
        0.120944216325250        0.000705005935458        0.000765514226849        0.172216114089916
        0.123363100651755        0.000704503659776        0.000764722888370        0.168677459680241
        0.125781984978260        0.000699134982114        0.000758647550621        0.164131777828438
        0.128200869304765        0.000692611965994        0.000751319890724        0.159491537290024
        0.130619753631270        0.000680974855959        0.000738448618361        0.153867900454102
        0.133038637957775        0.000668015471796        0.000724149613723        0.148156202622458
        0.135457522284280        0.000649776593198        0.000704137534513        0.141500061972229
        0.137876406610785        0.000630061904394        0.000682538549877        0.134763491465918
        0.140295290937290        0.000604992511653        0.000655155264864        0.127136181507524
        0.142714175263795        0.000578311275071        0.000626045176921        0.119437137023674
        0.145133059590300        0.000546296643713        0.000591184116407        0.110915001178236
        0.147551943916805        0.000512554500755        0.000554478372973        0.102330804663133
        0.149970828243310        0.000473601353333        0.000512163908816        0.093004084477931
        0.152389712569815        0.000432827950968        0.000467911294897        0.083625855094405
        0.154808596896320        0.000387069650338        0.000418303417534        0.073597360627708
        0.157227481222825        0.000339423468319        0.000366690343285        0.063528671441211
        0.159646365549330        0.000287122790522        0.000310086758862        0.052912254087946
        0.162065249875835        0.000232893493757        0.000251438932301        0.042267593072512
        0.164484134202340        0.000174442840207        0.000188274485800        0.031186445431027
        0.166903018528845        0.000114051024821        0.000123055884188        0.020089505665297
        0.169321902855350        0.000049969986959        0.000053899267245        0.008674315907777
        0.171740787181855       -0.000016035756082       -0.000017291625770       -0.002743857380766
        0.174159671508360       -0.000085105508418       -0.000091743869757       -0.014356866837212
        0.176578555834865       -0.000156054228739       -0.000168180540073       -0.025959842464828
        0.178997440161370       -0.000229356702956       -0.000247112647043       -0.037630960418966
        0.181416324487875       -0.000304463379819       -0.000327949664140       -0.049278969064508
        0.183835208814380       -0.000381138565763       -0.000410437797461       -0.060867092366480
        0.186254093140885       -0.000459514942774       -0.000494722439025       -0.072419123283529
        0.188672977467390       -0.000538611511682       -0.000579748184824       -0.083783871678875
        0.191091861793895       -0.000619279307941       -0.000666434394252       -0.095099785016511
        0.193510746120400       -0.000699769490810       -0.000752900386782       -0.106103600591564
        0.195929630446905       -0.000781675761490       -0.000840864838841       -0.117046222044482
        0.198348514773410       -0.000862472138623       -0.000927612255192       -0.127556420371298
        0.200767399099915       -0.000944506505254       -0.001015672262132       -0.137993585421426
        0.203186283426420       -0.001024480391243       -0.001101499886842       -0.147884326524374
        0.205605167752925       -0.001105493816171       -0.001188432839097       -0.157690842587885
        0.208024052079430       -0.001183494884922       -0.001272117365775       -0.166844991365371
        0.210442936405935       -0.001262319626780       -0.001356681368650       -0.175904487691846
        0.212861820732440       -0.001337196390597       -0.001436998578354       -0.184215335391584
        0.215280705058945       -0.001412666749273       -0.001517953919441       -0.192421972544136
        0.217699589385450       -0.001483287485214       -0.001593700354599       -0.199794793272183
        0.220118473711955       -0.001554260926437       -0.001669831416555       -0.207054806413233
        0.222537358038460       -0.001619534632636       -0.001739846155197       -0.213408225415419
        0.224956242364965       -0.001684912874090       -0.001809983375399       -0.219641278392231
        0.227375126691470       -0.001743809838468       -0.001873169503630       -0.224908431936305
        0.229794011017975       -0.001802559481269       -0.001936210976303       -0.230048762257379
        0.232212895344480       -0.001854131054576       -0.001991556357433       -0.234178232313794
        0.234631779670985       -0.001905303355387       -0.002046488675290       -0.238175570478662
        0.237050663997490       -0.001948700539103       -0.002093085621869       -0.241132080989354
        0.239469548323995       -0.001991449938207       -0.002139003563066       -0.243952331220429
        0.241888432650500       -0.002025940424359       -0.002176067033017       -0.245717196494398
        0.244307316977005       -0.002059541472586       -0.002212191715042       -0.247342869654634
        0.246726201303510       -0.002084524805636       -0.002239075674866       -0.247914189268094
        0.249145085630015       -0.002108387166626       -0.002264770819534       -0.248344582563349
        0.251563969956520       -0.002123407735879       -0.002280982445620       -0.247737181001208
        0.253982854283025       -0.002137088978432       -0.002295768428082       -0.246988302892122
        0.256401738609530       -0.002141846591300       -0.002300979850942       -0.245233415978867
        0.258820622936035       -0.002145062528027       -0.002304545239907       -0.243337658498402
        0.261239507262540       -0.002139420358671       -0.002298602574923       -0.240482372368668
        0.263658391589045       -0.002132052730516       -0.002290812910538       -0.237487936700362
        0.266077275915550       -0.002116042483646       -0.002273742361913       -0.233594388600730
        0.268496160242055       -0.002098143834051       -0.002254645961133       -0.229564473272245
        0.270915044568560       -0.002071968009030       -0.002226656832413       -0.224708826826465
        0.273333928895065       -0.002043763635863       -0.002196487458756       -0.219720591179034
        0.275752813221570       -0.002007794821218       -0.002157971952988       -0.213991801862610
        0.278171697548075       -0.001969681738530       -0.002117148237541       -0.208135120548596
        0.280590581874580       -0.001924458911214       -0.002068677982183       -0.201633509992012
        0.283009466201085       -0.001877001796463       -0.002017799535305       -0.195009537120693
        0.285428350527590       -0.001823223643808       -0.001960118821072       -0.187845197489813
        0.287847234854095       -0.001767147789522       -0.001899959028823       -0.180564761684572
        0.290266119180600       -0.001705663115051       -0.001833974807170       -0.172855813774439
        0.292685003507105       -0.001641844447361       -0.001765470362829       -0.165037667824985
        0.295103887833610       -0.001573639764960       -0.001692239103480       -0.156908398651978
        0.297522772160115       -0.001503092035496       -0.001616476382135       -0.148677349642795
        0.299941656486620       -0.001429276500231       -0.001537187949356       -0.140256257227422
        0.302360540813125       -0.001353135802895       -0.001455386391925       -0.131741204989776
        0.304779425139630       -0.001274923671322       -0.001371345155680       -0.123158979674812
        0.307198309466135       -0.001194430481652       -0.001284837887272       -0.114490893122689
        0.309617193792640       -0.001113121339830       -0.001197441342082       -0.105878366140780
        0.312036078119145       -0.001029600321795       -0.001107653307392       -0.097188228473042
        0.314454962445650       -0.000946557364957       -0.001018368526744       -0.088674319519569
        0.316873846772155       -0.000861395237601       -0.000926792481033       -0.080091074346277
        0.319292731098660       -0.000778021930747       -0.000837130787184       -0.071800770566695
        0.321711615425165       -0.000692643733982       -0.000745301533960       -0.063449301677374
        0.324130499751670       -0.000610359226270       -0.000656791810500       -0.055501700670998
        0.326549384078175       -0.000526203369824       -0.000566259124559       -0.047500878327129
        0.328968268404680       -0.000446417075797       -0.000480420240328       -0.040007327424166
        0.331387152731185       -0.000364909595907       -0.000392720955520       -0.032468153646722
        0.333806037057690       -0.000288995391318       -0.000311033801658       -0.025530516758417
        0.336224921384195       -0.000211523874117       -0.000227663574718       -0.018554401021062
        0.338643805710700       -0.000140794381152       -0.000151543239915       -0.012263482734663
        0.341062690037205       -0.000068682037530       -0.000073928523171       -0.005940677710489
        0.343481574363710       -0.000004363491593       -0.000004697144008       -0.000374831966098
        0.345900458690215        0.000061156116451        0.000065832090828        0.005216943514661
        0.348319343016720        0.000117947920564        0.000126971268481        0.009992995871360
        0.350738227343225        0.000175754999130        0.000189207516975        0.014789722701560
        0.353157111669730        0.000224037191135        0.000241194343874        0.018725846910474
        0.355575995996235        0.000273148186830        0.000294076744970        0.022678140341905
        0.357994880322740        0.000312091265428        0.000336016148061        0.025739494987809
        0.360413764649245        0.000351679223138        0.000378652359602        0.028813292375266
        0.362832648975750        0.000380625026242        0.000409833642481        0.030980779413957
        0.365251533302255        0.000410037402560        0.000441518969884        0.033157770286184
        0.367670417628760        0.000428514215978        0.000461432034065        0.034428221425984
        0.370089301955265        0.000447287769094        0.000481665420841        0.035706014233154
        0.372508186281770        0.000455022244981        0.000490013570212        0.036092112486143
        0.374927070608275        0.000462894682844        0.000498510123138        0.036484137584338
        0.377345954934780        0.000459820306663        0.000495219183909        0.036014077973843
        0.379764839261285        0.000456738444141        0.000491918976373        0.035549231507332
        0.382183723587790        0.000443000362308        0.000477142539495        0.034266129850800
        0.384602607914295        0.000429124611990        0.000462215511174        0.032988168002626
        0.387021492240800        0.000405080708690        0.000436336180833        0.030949231215052
        0.389440376567305        0.000380785805848        0.000410183027631        0.028915928659804
        0.391859260893810        0.000347003993743        0.000373809635401        0.026191404007056
        0.394278145220315        0.000312875930818        0.000337058658034        0.023473494197003
        0.396697029546820        0.000270127693698        0.000291019475234        0.020145418277110
        0.399115913873325        0.000226956910945        0.000244519425826        0.016825336348579
        0.401534798199830        0.000176207204561        0.000189851474851        0.012986107245392
        0.403953682526335        0.000124978149185        0.000134660506959        0.009156558818325
        0.406372566852840        0.000067371827866        0.000072595134582        0.004907356856411
        0.408791451179345        0.000009249052739        0.000009966022175        0.000669737833881
        0.411210335505850       -0.000053905956909       -0.000058089046410       -0.003881178290567
        0.413629219832355       -0.000117594932595       -0.000126727201494       -0.008418484577345
        0.416048104158860       -0.000184847443809       -0.000199209059838       -0.013157578729983
        0.418466988485365       -0.000252632245764       -0.000272272364383       -0.017880999955903
        0.420885872811870       -0.000322410304025       -0.000347487061682       -0.022691328678993
        0.423304757138375       -0.000392700482633       -0.000423261301080       -0.027483970139816
        0.425723641464880       -0.000463336200876       -0.000499410568915       -0.032247094094383
        0.428142525791385       -0.000534446344713       -0.000576078261588       -0.036990646080657
        0.430561410117890       -0.000604202717048       -0.000651288446267       -0.041588555240479
        0.432980294444395       -0.000674379538183       -0.000726958098173       -0.046165213932459
        0.435399178770900       -0.000741478844885       -0.000799310883057       -0.050482239395296
        0.437818063097405       -0.000808929849932       -0.000872048025128       -0.054776614356453
        0.440236947423910       -0.000871583246140       -0.000939612498468       -0.058701300181769
        0.442655831750415       -0.000934506584981       -0.001007472059032       -0.062602281933031
        0.445074716076920       -0.000990944447045       -0.001068337656040       -0.066029191035161
        0.447493600403425       -0.001047559510490       -0.001129397191528       -0.069431752675444
        0.449912484729930       -0.001096062096758       -0.001181707015041       -0.072263181503918
        0.452331369056435       -0.001144640415114       -0.001234100296048       -0.075070088928326
        0.454750253382940       -0.001183568382392       -0.001276084298926       -0.077217666488644
        0.457169137709445       -0.001222464359241       -0.001318034726013       -0.079341072493969
        0.459588022035950       -0.001250288663009       -0.001348042221669       -0.080727220274177
        0.462006906362455       -0.001277969663785       -0.001377895527767       -0.082090118812122
        0.464425790688960       -0.001293300360470       -0.001394426484471       -0.082649349446270
        0.466844675015465       -0.001308375664732       -0.001410682169936       -0.083186867557257
        0.469263559341970       -0.001309989129878       -0.001412416741690       -0.082866901672238
        0.471682443668475       -0.001311237251600       -0.001413757686095       -0.082527408301854
