#           time (fs)    |     mu_x (e.angstrom)   |     mu_y (e.angstrom)   |     mu_z (e.angstrom)   |
        0.000000000000000       -0.000000000000000       -0.000000000000000        0.000000000000000
        0.002418884326505        0.000000001446602       -0.000000002457468       -0.000057762173892
        0.004837768653010       -0.000000043117611        0.000000073253285        0.000860842230808
        0.007256652979515       -0.000000133790385        0.000000227291768        0.001780620369552
        0.009675537306020       -0.000000366579426        0.000000622778075        0.003658977924798
        0.012094421632525       -0.000000693361332        0.000001177929732        0.005536260445632
        0.014513305959030       -0.000001252719770        0.000002128236525        0.008335157988006
        0.016932190285535       -0.000001951193696        0.000003314864251        0.011127382909461
        0.019351074612040       -0.000002963160026        0.000005034187666        0.014785740081856
        0.021769958938545       -0.000004155011985        0.000007059145853        0.018428635399616
        0.024188843265050       -0.000005728065545        0.000009732013886        0.022864660300321
        0.026607727591555       -0.000007515923407        0.000012770017915        0.027273482505704
        0.029026611918060       -0.000009736158928        0.000016543264458        0.032386228078790
        0.031445496244565       -0.000012198898131        0.000020729118322        0.037457392728589
        0.033864380571070       -0.000015125762259        0.000025704867715        0.043128677121625
        0.036283264897575       -0.000018314413299        0.000031126758271        0.048741742911046
        0.038702149224080       -0.000021977131832        0.000037356607886        0.054838390162468
        0.041121033550585       -0.000025911517728        0.000044050643559        0.060858351894100
        0.043539917877090       -0.000030306333037        0.000051531198719        0.067234704597573
        0.045958802203595       -0.000034972553995        0.000059477336907        0.073514546511881
        0.048377686530100       -0.000040060878064        0.000068147217409        0.080015199496202
        0.050796570856605       -0.000045409744573        0.000077266690042        0.086398658499678
        0.053215455183110       -0.000051117313820        0.000087005092224        0.092861361816388
        0.055634339509615       -0.000057063807860        0.000097159404338        0.099185849895750
        0.058053223836120       -0.000063280901129        0.000107786268204        0.105444530122214
        0.060472108162625       -0.000069704718139        0.000118777810870        0.111544166219885
        0.062890992489130       -0.000076287469402        0.000130055608953        0.117432016767281
        0.065309876815635       -0.000083034661859        0.000141629895998        0.123140720104055
        0.067728761142140       -0.000089807465186        0.000153267029590        0.128493313347383
        0.070147645468645       -0.000096693173146        0.000165116537193        0.133647912109997
        0.072566529795150       -0.000103452140902        0.000176772296064        0.138306288256798
        0.074985414121655       -0.000110264357573        0.000188541855142        0.142749599293518
        0.077404298448160       -0.000116781755486        0.000199832868414        0.146563288613432
        0.079823182774665       -0.000123286038721        0.000211126531146        0.150147125002594
        0.082242067101170       -0.000129315585750        0.000221634608926        0.152977061138250
        0.084660951427675       -0.000135260591793        0.000232023882184        0.155565125082022
        0.087079835754180       -0.000140543480876        0.000241305119315        0.157286407617755
        0.089498720080685       -0.000145667166948        0.000250338428698        0.158757026115886
        0.091917604407190       -0.000149938636984        0.000257933413281        0.159261490537638
        0.094336488733695       -0.000153974956516        0.000265146631774        0.159510150933477
        0.096755373060200       -0.000156971228205        0.000270591572013        0.158708703870406
        0.099174257386705       -0.000159657128306        0.000275519417318        0.157650345992959
        0.101593141713210       -0.000161122507969        0.000278357971333        0.155475023602191
        0.104012026039715       -0.000162205034129        0.000280546046525        0.153046045301181
        0.106430910366220       -0.000161898990917        0.000280341612098        0.149451753311905
        0.108849794692725       -0.000161142308935        0.000279358836629        0.145611687172789
        0.111268679019230       -0.000158846341588        0.000275707032979        0.140577582905759
        0.113687563345735       -0.000156038500788        0.000271158186952        0.135310404274299
        0.116106447672240       -0.000151562628969        0.000263699240184        0.128840884284795
        0.118525331998745       -0.000146521912055        0.000255237326022        0.122155914759959
        0.120944216325250       -0.000139710652320        0.000243668055910        0.114281176871373
        0.123363100651755       -0.000132291383497        0.000231006169939        0.106213553321762
        0.125781984978260       -0.000123029098330        0.000215091269680        0.096989708804321
        0.128200869304765       -0.000113126809585        0.000198013673237        0.087600395721321
        0.130619753631270       -0.000101342346624        0.000177595977288        0.077109116111913
        0.133038637957775       -0.000088898229245        0.000155968063947        0.066484448530266
        0.135457522284280       -0.000074568793775        0.000130977512603        0.054832141778925
        0.137876406610785       -0.000059573385383        0.000104754385400        0.043082896688140
        0.140295290937290       -0.000042727609677        0.000075215418629        0.030399418483699
        0.142714175263795       -0.000025223683877        0.000044448818558        0.017659424092356
        0.145133059590300       -0.000005943870202        0.000010485964998        0.004096341776579
        0.147551943916805        0.000013971494958       -0.000024670671425       -0.009479354442740
        0.149970828243310        0.000035547975811       -0.000062829202768       -0.023750916658510
        0.152389712569815        0.000057722173353       -0.000102117735074       -0.037988289165833
        0.154808596896320        0.000081402348798       -0.000144138604940       -0.052780184542667
        0.157227481222825        0.000105626891074       -0.000187195358141       -0.067488838254560
        0.159646365549330        0.000131162548276       -0.000232640881491       -0.082598763291216
        0.162065249875835        0.000157173627558       -0.000278998069595       -0.097574859188299
        0.164484134202340        0.000184262611427       -0.000327329273409       -0.112789495521202
        0.166903018528845        0.000211742624992       -0.000376418700012       -0.127818936714803
        0.169321902855350        0.000240031126166       -0.000427000640450       -0.142917308800642
        0.171740787181855        0.000268611228474       -0.000478159647605       -0.157779126167682
        0.174159671508360        0.000297697122726       -0.000530268922318       -0.172536111486444
        0.176578555834865        0.000326960871949       -0.000582748510333       -0.187005985815232
        0.178997440161370        0.000356398172577       -0.000635582855579       -0.201195913465707
        0.181416324487875        0.000385886334002       -0.000688557852283       -0.215049770813654
        0.183835208814380        0.000415190808213       -0.000741247673463       -0.228450045298484
        0.186254093140885        0.000444407360491       -0.000793828792436       -0.241467663646051
        0.188672977467390        0.000473063337530       -0.000845450441042       -0.253862353005308
        0.191091861793895        0.000501482698071       -0.000896698034600       -0.265830920922192
        0.193510746120400        0.000528951060560       -0.000946288614263       -0.277014251770685
        0.195929630446905        0.000556026503844       -0.000995227898113       -0.287731823289450
        0.198348514773410        0.000581753805503       -0.001041801356924       -0.297511529344326
        0.200767399099915        0.000606926994645       -0.001087438859011       -0.306790323188351
        0.203186283426420        0.000630355590145       -0.001130003103938       -0.314990798190723
        0.205605167752925        0.000653067081122       -0.001171344069162       -0.322660293619073
        0.208024052079430        0.000673646091286       -0.001208918820433       -0.329125503891610
        0.210442936405935        0.000693346605476       -0.001244985285230       -0.335035289490053
        0.212861820732440        0.000710543478688       -0.001276620373463       -0.339631405571856
        0.215280705058945        0.000726705678344       -0.001306469609091       -0.343653741231314
        0.217699589385450        0.000740018052478       -0.001331263405470       -0.346271452041318
        0.220118473711955        0.000752148501157       -0.001354006416212       -0.348303508122243
        0.222537358038460        0.000761116025317       -0.001371124076093       -0.348859984971128
        0.224956242364965        0.000768766976676       -0.001385943828710       -0.348825726343232
        0.227375126691470        0.000772982723620       -0.001394635022141       -0.347266207965969
        0.229794011017975        0.000775763361853       -0.001400804076278       -0.345117894387991
        0.232212895344480        0.000774884453894       -0.001400419875693       -0.341416868174881
        0.234631779670985        0.000772471210620       -0.001397317082370       -0.337136146518392
        0.237050663997490        0.000766228296370       -0.001387325679015       -0.331298105463131
        0.239469548323995        0.000758373893251       -0.001374451616848       -0.324896673762752
        0.241888432650500        0.000746579149873       -0.001354452544326       -0.316956433481023
        0.244307316977005        0.000733120062910       -0.001331443371561       -0.308476261849353
        0.246726201303510        0.000715673456721       -0.001301179928027       -0.298498827459666
        0.249145085630015        0.000696535564126       -0.001267819343704       -0.288011926616906
        0.251563969956520        0.000673429177494       -0.001227188924463       -0.276091905356081
        0.253982854283025        0.000648631433599       -0.001183417954602       -0.263699639894257
        0.256401738609530        0.000619951752443       -0.001132480034415       -0.249960202022836
        0.258820622936035        0.000589607818919       -0.001078404389196       -0.235792152475388
        0.261239507262540        0.000555535965927       -0.001017385928493       -0.220383550195090
        0.263658391589045        0.000519853821581       -0.000953280713739       -0.204595935363209
        0.266077275915550        0.000480663808156       -0.000882578804675       -0.187693596934395
        0.268496160242055        0.000439943442278       -0.000808890414982       -0.170467275521965
        0.270915044568560        0.000395998589946       -0.000729072030989       -0.152269499300863
        0.273333928895065        0.000350627954881       -0.000646417101480       -0.133807577482528
        0.275752813221570        0.000302375698316       -0.000558215866501       -0.114532857938008
        0.278171697548075        0.000252825148985       -0.000467377214162       -0.095057936768834
        0.280590581874580        0.000200790473245       -0.000371687163661       -0.074941961429149
        0.283009466201085        0.000147605951143       -0.000273606706083       -0.054693064748860
        0.285428350527590        0.000092383732709       -0.000171473069635       -0.033985427234570
        0.287847234854095        0.000036178958042       -0.000067241767150       -0.013214656704712
        0.290266119180600       -0.000021574527245        0.000040151139531        0.007824663670161
        0.292685003507105       -0.000080126608113        0.000149306214375        0.028855694706044
        0.295103887833610       -0.000139702774810        0.000260649843304        0.049960031980852
        0.297522772160115       -0.000199879075032        0.000373381148604        0.070983930126771
        0.299941656486620       -0.000260526524356        0.000487260120287        0.091883751416250
        0.302360540813125       -0.000321563273258        0.000602117786150        0.112631181780279
        0.304779425139630       -0.000382497559259        0.000717029587495        0.133057967658669
        0.307198309466135       -0.000443600024122        0.000832481792388        0.153261539037556
        0.309617193792640       -0.000504013610721        0.000946858475853        0.172951663671423
        0.312036078119145       -0.000564366033580        0.001061313749482        0.192349799446223
        0.314454962445650       -0.000623438416497        0.001173545296596        0.211048349759160
        0.316873846772155       -0.000682214163623        0.001285376401288        0.229389084034416
        0.319292731098660       -0.000739122172782        0.001393835378606        0.246853558415303
        0.321711615425165       -0.000795494127996        0.001501404387537        0.263898198384927
        0.324130499751670       -0.000849422450495        0.001604471494322        0.279902027635208
        0.326549384078175       -0.000902573697842        0.001706155657695        0.295428625535431
        0.328968268404680       -0.000952725665380        0.001802245742531        0.309764461809872
        0.331387152731185       -0.001001860499496        0.001896463712395        0.323571043047761
        0.333806037057690       -0.001047469166020        0.001984051820902        0.336053766398460
        0.336224921384195       -0.001091824439670        0.002069289791937        0.347961264449298
        0.338643805710700       -0.001132163936211        0.002146936800040        0.358430661157474
        0.341062690037205       -0.001171020706383        0.002221774117747        0.368285514532672
        0.343481574363710       -0.001205417804344        0.002288151504703        0.376608586630814
        0.345900458690215       -0.001238113175766        0.002351285294097        0.384284958555185
        0.348319343016720       -0.001265958922959        0.002405198616920        0.390357829724507
        0.350738227343225       -0.001291897917320        0.002455466994177        0.395759417048144
        0.353157111669730       -0.001312659140118        0.002495877640099        0.399508806337961
        0.355575995996235       -0.001331326348399        0.002532281086593        0.402570210555879
        0.357994880322740       -0.001344556746227        0.002558325902711        0.403954452019047
        0.360413764649245       -0.001355527458190        0.002580046405291        0.404642091984386
        0.362832648975750       -0.001360877961090        0.002591054834140        0.403651685254384
        0.365251533302255       -0.001363828417633        0.002597472426949        0.401964238143334
        0.367670417628760       -0.001361056440578        0.002592980813080        0.398621922085425
        0.370089301955265       -0.001355772827507        0.002583687194236        0.394590286294203
        0.372508186281770       -0.001344750041740        0.002563449969218        0.388950635035102
        0.374927070608275       -0.001331135841800        0.002538258909569        0.382637415852129
        0.377345954934780       -0.001311854096776        0.002502256410589        0.374785963623053
        0.379764839261285       -0.001289935442460        0.002461210720872        0.366284489620010
        0.382183723587790       -0.001262510512558        0.002409653450474        0.356336397839791
        0.384602607914295       -0.001232439234675        0.002353028326793        0.345769282872608
        0.387021492240800       -0.001197112130766        0.002286357517565        0.333867569667816
        0.389440376567305       -0.001159166273913        0.002214660142453        0.321384842097288
        0.391859260893810       -0.001116301946795        0.002133544549883        0.307698200937983
        0.394278145220315       -0.001070883617555        0.002047509886651        0.293475028109671
        0.396697029546820       -0.001020966982011        0.001952838795352        0.278195268380434
        0.399115913873325       -0.000968597501870        0.001853421576320        0.262429310497514
        0.401534798199830       -0.000912226819131        0.001746294068637        0.245768458581141
        0.403953682526335       -0.000853539264012        0.001634657042627        0.228676891820526
        0.406372566852840       -0.000791417028604        0.001516367643700        0.210863996605875
        0.408791451179345       -0.000727146342319        0.001393866214052        0.192680250622936
        0.411210335505850       -0.000660067918631        0.001265887093002        0.173957942210464
        0.413629219832355       -0.000591038880865        0.001134050543744        0.154928201993798
        0.416048104158860       -0.000519879218402        0.000998010515850        0.135549056697371
        0.418466988485365       -0.000446992622678        0.000858520089355        0.115928582993723
        0.420885872811870       -0.000372691441121        0.000716180727844        0.096151351435825
        0.423304757138375       -0.000296908889871        0.000570844881258        0.076200677561067
        0.425723641464880       -0.000220454762497        0.000424074108223        0.056286435614579
        0.428142525791385       -0.000142782512414        0.000274801336495        0.036267501267271
        0.430561410117890       -0.000065196287677        0.000125544918861        0.016475785670565
        0.432980294444395        0.000013331421248       -0.000025685412405       -0.003351929782893
        0.435399178770900        0.000091013433929       -0.000175433985932       -0.022766938273921
        0.437818063097405        0.000169351155804       -0.000326602306345       -0.042150219830072
        0.440236947423910        0.000246093845620       -0.000474833049870       -0.060943403041816
        0.442655831750415        0.000323201445909       -0.000623911218448       -0.079638978710444
        0.445074716076920        0.000397987067760       -0.000768629426403       -0.097577816164539
        0.447493600403425        0.000472845671271       -0.000913612775973       -0.115355849435646
        0.449912484729930        0.000544689245959       -0.001052870786043       -0.132223723615545
        0.452331369056435        0.000616316371760       -0.001191810004959       -0.148871062274358
        0.454750253382940        0.000684280112466       -0.001323738373632       -0.164470279992960
        0.457169137709445        0.000751743818256       -0.001454770651120       -0.179793408577784
        0.459588022035950        0.000814950441730       -0.001577608178096       -0.193947890067545
        0.462006906362455        0.000877382361448       -0.001698987053273       -0.207775539358953
        0.464425790688960        0.000935027199399       -0.001811109114288       -0.220333133596323
        0.466844675015465        0.000991634408632       -0.001921232496637       -0.232518507759704
        0.469263559341970        0.001042996279235       -0.002021177180915       -0.243352900403808
        0.471682443668475        0.001093071959632       -0.002118613050514       -0.253775490506356
