#           time (fs)    |     mu_x (e.angstrom)   |     mu_y (e.angstrom)   |     mu_z (e.angstrom)   |
        0.000000000000000       -0.000000000000000       -0.000000000000000        0.000000000000000
        0.002418884326505        0.000000000945621        0.000000000589899       -0.000030809650904
        0.004837768653010        0.000000003782410        0.000000002359570       -0.000061620332736
        0.007256652979515        0.000000008464614        0.000000005280440       -0.000091934968016
        0.009675537306020        0.000000015007465        0.000000009362064       -0.000122251629762
        0.012094421632525        0.000000023259752        0.000000014510039       -0.000151583643567
        0.014513305959030        0.000000033312547        0.000000020781274       -0.000180919653321
        0.016932190285535        0.000000044852604        0.000000027980241       -0.000208799284763
        0.019351074612040        0.000000058104692        0.000000036247296       -0.000236685811180
        0.021769958938545        0.000000072541985        0.000000045253634       -0.000262668697478
        0.024188843265050        0.000000088576210        0.000000055256280       -0.000288662240784
        0.026607727591555        0.000000105422212        0.000000065765237       -0.000312336544060
        0.029026611918060        0.000000123725555        0.000000077183448       -0.000336026041945
        0.031445496244565        0.000000142406368        0.000000088837020       -0.000357019035174
        0.033864380571070        0.000000162382946        0.000000101299076       -0.000378032429468
        0.036283264897575        0.000000182254056        0.000000113695206       -0.000396016435994
        0.038702149224080        0.000000203240205        0.000000126787105       -0.000414026594893
        0.041121033550585        0.000000223603029        0.000000139490008       -0.000428724186530
        0.043539917877090        0.000000244884127        0.000000152765958       -0.000443454087705
        0.045958802203595        0.000000265003987        0.000000165317331       -0.000454642458519
        0.048377686530100        0.000000285832652        0.000000178311105       -0.000465869550513
        0.050796570856605        0.000000304957776        0.000000190241977       -0.000473383996857
        0.053215455183110        0.000000324573042        0.000000202478867       -0.000480943669558
        0.055634339509615        0.000000341954174        0.000000213321835       -0.000484680121433
        0.058053223836120        0.000000359601205        0.000000224330954       -0.000488468230888
        0.060472108162625        0.000000374511380        0.000000233632514       -0.000488384795122
        0.062890992489130        0.000000389461295        0.000000242959161       -0.000488359203321
        0.065309876815635        0.000000401215343        0.000000250291875       -0.000484476695057
        0.067728761142140        0.000000412784706        0.000000257509691       -0.000480657801262
        0.070147645468645        0.000000420758029        0.000000262483903       -0.000473059256628
        0.072566529795150        0.000000428327563        0.000000267206547       -0.000465529513140
        0.074985414121655        0.000000431973780        0.000000269481385       -0.000454358692440
        0.077404298448160        0.000000435005877        0.000000271373454       -0.000443261114096
        0.079823182774665        0.000000433872909        0.000000270666870       -0.000428720021131
        0.082242067101170        0.000000431927531        0.000000269453825       -0.000414255714071
        0.084660951427675        0.000000425671759        0.000000265551425       -0.000396601173081
        0.087079835754180        0.000000418420366        0.000000261028277       -0.000379025924106
        0.089498720080685        0.000000406818520        0.000000253790742       -0.000358565270959
        0.091917604407190        0.000000394055675        0.000000245829295       -0.000338185253922
        0.094336488733695        0.000000377014162        0.000000235198201       -0.000315271212422
        0.096755373060200        0.000000358666533        0.000000223752670       -0.000292437882268
        0.099174257386705        0.000000336227958        0.000000209754560       -0.000267462709508
        0.101593141713210        0.000000312360479        0.000000194865418       -0.000242566967592
        0.104012026039715        0.000000284707171        0.000000177614002       -0.000215955963984
        0.106430910366220        0.000000255526179        0.000000159409938       -0.000189421689977
        0.108849794692725        0.000000222980597        0.000000139106354       -0.000161626179719
        0.111268679019230        0.000000188833826        0.000000117804275       -0.000133903235472
        0.113687563345735        0.000000151855795        0.000000094735360       -0.000105393131639
        0.116106447672240        0.000000113229175        0.000000070638393       -0.000076949950817
        0.118525331998745        0.000000072409927        0.000000045172974       -0.000048206025814
        0.120944216325250        0.000000029921197        0.000000018666484       -0.000019521909608
        0.123363100651755       -0.000000014025671       -0.000000008750265        0.000008972103625
        0.125781984978260       -0.000000059636459       -0.000000037204594        0.000037414859751
        0.128200869304765       -0.000000105887014       -0.000000066058657        0.000065180207851
        0.130619753631270       -0.000000153769949       -0.000000095930598        0.000092904228877
        0.133038637957775       -0.000000201404710       -0.000000125648337        0.000119474990992
        0.135457522284280       -0.000000250615242       -0.000000156348611        0.000146015650480
        0.137876406610785       -0.000000298636480       -0.000000186307567        0.000170946377106
        0.140295290937290       -0.000000348153117       -0.000000217198886        0.000195859412250
        0.142714175263795       -0.000000395504350       -0.000000246739937        0.000218732426610
        0.145133059590300       -0.000000444248537       -0.000000277149406        0.000241601217274
        0.147551943916805       -0.000000489835847       -0.000000305590072        0.000262033461477
        0.149970828243310       -0.000000536693627       -0.000000334822709        0.000282475855826
        0.152389712569815       -0.000000579408403       -0.000000361471340        0.000300125171469
        0.154808596896320       -0.000000623253471       -0.000000388824457        0.000317799748238
        0.157227481222825       -0.000000661996116       -0.000000412995027        0.000332370490362
        0.159646365549330       -0.000000701713799       -0.000000437773194        0.000346982156983
        0.162065249875835       -0.000000735417952       -0.000000458800415        0.000358230051122
        0.164484134202340       -0.000000769929648       -0.000000480330710        0.000369534887742
        0.166903018528845       -0.000000797586407       -0.000000497585147        0.000377271052069
        0.169321902855350       -0.000000825873988       -0.000000515232379        0.000385080323695
        0.171740787181855       -0.000000846555657       -0.000000528135263        0.000389174391811
        0.174159671508360       -0.000000867685335       -0.000000541316870        0.000393357664316
        0.176578555834865       -0.000000880568179       -0.000000549354301        0.000393739958733
        0.178997440161370       -0.000000893713340       -0.000000557554586        0.000394227268910
        0.181416324487875       -0.000000898098883       -0.000000560290814        0.000390889990622
        0.183835208814380       -0.000000902561391       -0.000000563074246        0.000387673035749
        0.186254093140885       -0.000000897895769       -0.000000560163749        0.000380670451138
        0.188672977467390       -0.000000893125292       -0.000000557187012        0.000373802779328
        0.191091861793895       -0.000000879016243       -0.000000548385092        0.000363250401786
        0.193510746120400       -0.000000864627152       -0.000000539407629        0.000352846600464
        0.195929630446905       -0.000000840858233       -0.000000524579282        0.000338919380285
        0.198348514773410       -0.000000816643685       -0.000000509472079        0.000325153276240
        0.200767399099915       -0.000000783185381       -0.000000488598922        0.000308082828268
        0.203186283426420       -0.000000749128240       -0.000000467351320        0.000291184728627
        0.205605167752925       -0.000000706145657       -0.000000440536387        0.000271255642566
        0.208024052079430       -0.000000662425960       -0.000000413260734        0.000251508661384
        0.210442936405935       -0.000000610282881       -0.000000380731005        0.000229053954394
        0.212861820732440       -0.000000557281617       -0.000000347665017        0.000206789484235
        0.215280705058945       -0.000000496540740       -0.000000309771565        0.000182185269154
        0.217699589385450       -0.000000434839796       -0.000000271278283        0.000157777670684
        0.220118473711955       -0.000000366259075       -0.000000228493989        0.000131437125749
        0.222537358038460       -0.000000296637231       -0.000000185059284        0.000105297720901
        0.224956242364965       -0.000000221162285       -0.000000137974097        0.000077664457977
        0.227375126691470       -0.000000144587270       -0.000000090201711        0.000050234923301
        0.229794011017975       -0.000000063339921       -0.000000039515500        0.000021775861220
        0.232212895344480        0.000000019043429        0.000000011880344       -0.000006478872372
        0.234631779670985        0.000000104780364        0.000000065367278       -0.000035281014920
        0.237050663997490        0.000000191665701        0.000000119571604       -0.000063880242018
        0.239469548323995        0.000000280467154        0.000000174970225       -0.000092534713586
        0.241888432650500        0.000000370405764        0.000000231079246       -0.000120989693707
        0.244307316977005        0.000000460726429        0.000000287425513       -0.000149005612645
        0.246726201303510        0.000000552149638        0.000000344460613       -0.000176827445160
        0.249145085630015        0.000000642348909        0.000000400731037       -0.000203721711005
        0.251563969956520        0.000000733593410        0.000000457654563       -0.000230429219369
        0.253982854283025        0.000000821962833        0.000000512783333       -0.000255734306409
        0.256401738609530        0.000000911298513        0.000000568515963       -0.000280861805494
        0.258820622936035        0.000000996091302        0.000000621413353       -0.000304133313811
        0.261239507262540        0.000001081751117        0.000000674852726       -0.000327238136058
        0.263658391589045        0.000001161213217        0.000000724424480       -0.000348061979344
        0.266077275915550        0.000001241424589        0.000000774464783       -0.000368731639424
        0.268496160242055        0.000001313826747        0.000000819632118       -0.000386730754738
        0.270915044568560        0.000001386843942        0.000000865184284       -0.000404589638262
        0.273333928895065        0.000001450514208        0.000000904904164       -0.000419430110628
        0.275752813221570        0.000001514651104        0.000000944916317       -0.000434145580161
        0.278171697548075        0.000001568007167        0.000000978201627       -0.000445542084341
        0.280590581874580        0.000001621669824        0.000001011679395       -0.000456829905316
        0.283009466201085        0.000001663250580        0.000001037618635       -0.000464550378070
        0.285428350527590        0.000001704969000        0.000001063644969       -0.000472179378179
        0.287847234854095        0.000001733464756        0.000001081421097       -0.000476048846653
        0.290266119180600        0.000001761923230        0.000001099175202       -0.000479844734557
        0.292685003507105        0.000001776203949        0.000001108083253       -0.000479748239993
        0.295103887833610        0.000001790269411        0.000001116858275       -0.000479596522676
        0.297522772160115        0.000001789410444        0.000001116321420       -0.000475481093095
        0.299941656486620        0.000001788158255        0.000001115540536       -0.000471329045602
        0.302360540813125        0.000001771463037        0.000001105124235       -0.000463204686319
        0.304779425139630        0.000001754199687        0.000001094354814       -0.000455062342776
        0.307198309466135        0.000001721218909        0.000001073778784       -0.000443002029273
        0.309617193792640        0.000001687501151        0.000001052744323       -0.000430942179684
        0.312036078119145        0.000001638047990        0.000001021892033       -0.000415080853311
        0.314454962445650        0.000001587697979        0.000000990481608       -0.000399238046496
        0.316873846772155        0.000001521859024        0.000000949407099       -0.000379770629295
        0.319292731098660        0.000001454975118        0.000000907682093       -0.000360339198160
        0.321711615425165        0.000001373116702        0.000000856613928       -0.000337517658761
        0.324130499751670        0.000001290079618        0.000000804811879       -0.000314748799621
        0.326549384078175        0.000001192849352        0.000000744154097       -0.000288878317200
        0.328968268404680        0.000001094323484        0.000000682689514       -0.000263076269917
        0.331387152731185        0.000000982646854        0.000000613019506       -0.000234510557535
        0.333806037057690        0.000000869576626        0.000000542481595       -0.000206027947486
        0.336224921384195        0.000000744648623        0.000000464544879       -0.000175163809408
        0.338643805710700        0.000000618249838        0.000000385692141       -0.000144396225576
        0.341062690037205        0.000000481521666        0.000000300394071       -0.000111667435317
        0.343481574363710        0.000000343267901        0.000000214145814       -0.000079047330851
        0.345900458690215        0.000000196428894        0.000000122540292       -0.000044917927369
        0.348319343016720        0.000000048033096        0.000000029965147       -0.000010907939661
        0.350738227343225       -0.000000107011922       -0.000000066759499        0.000024134951719
        0.353157111669730       -0.000000263620431       -0.000000164457926        0.000059049155275
        0.355575995996235       -0.000000424778039       -0.000000264995724        0.000094502863186
        0.357994880322740       -0.000000587480809       -0.000000366495850        0.000129820100179
        0.360413764649245       -0.000000752499735       -0.000000469442366        0.000165174189170
        0.362832648975750       -0.000000919020304       -0.000000573324047        0.000200385518711
        0.365251533302255       -0.000001085525571       -0.000000677197685        0.000235129689492
        0.367670417628760       -0.000001253463970       -0.000000781963740        0.000269726287411
        0.370089301955265       -0.000001418993889       -0.000000885228820        0.000303358270337
        0.372508186281770       -0.000001585864005       -0.000000989328337        0.000336839298412
        0.374927070608275       -0.000001747909430       -0.000001090419588        0.000368872615392
        0.377345954934780       -0.000001911178608       -0.000001192272632        0.000400752960227
        0.379764839261285       -0.000002067223810       -0.000001289620680        0.000430724432490
        0.382183723587790       -0.000002224354065       -0.000001387643998        0.000460542191859
        0.384602607914295       -0.000002371918529       -0.000001479701446        0.000488019075213
        0.387021492240800       -0.000002520408661       -0.000001572334737        0.000515342673872
        0.389440376567305       -0.000002657089109       -0.000001657602373        0.000539929309117
        0.391859260893810       -0.000002794517016       -0.000001743334682        0.000564364132095
        0.394278145220315       -0.000002918028911       -0.000001820387366        0.000585708006141
        0.396697029546820       -0.000003042093361       -0.000001897783137        0.000606902445318
        0.399115913873325       -0.000003150311173       -0.000001965294921        0.000624699568004
        0.401534798199830       -0.000003258872304       -0.000002033019262        0.000642350387251
        0.403953682526335       -0.000003349867820       -0.000002089787281        0.000656349899863
        0.406372566852840       -0.000003440985641       -0.000002146629973        0.000670206834919
        0.408791451179345       -0.000003513063604       -0.000002191596677        0.000680214778714
        0.411210335505850       -0.000003585033801       -0.000002236494515        0.000690084300253
        0.413629219832355       -0.000003636764230       -0.000002268767828        0.000695966486706
        0.416048104158860       -0.000003688150608       -0.000002300824849        0.000701714668394
        0.418466988485365       -0.000003718397185       -0.000002319695876        0.000703398607223
        0.420885872811870       -0.000003748060129       -0.000002338201122        0.000704953054856
        0.423304757138375       -0.000003756004082       -0.000002343159047        0.000702428910876
        0.425723641464880       -0.000003763124485       -0.000002347601483        0.000699779723615
        0.428142525791385       -0.000003748283496       -0.000002338345366        0.000693100288937
        0.430561410117890       -0.000003732381662       -0.000002328425683        0.000686300039067
        0.432980294444395       -0.000003694623380       -0.000002304872891        0.000675579722754
        0.435399178770900       -0.000003655572502       -0.000002280511905        0.000664742455944
        0.437818063097405       -0.000003595122352       -0.000002242802989        0.000650155308847
        0.440236947423910       -0.000003533156231       -0.000002204146469        0.000635454582440
        0.442655831750415       -0.000003450599289       -0.000002152646332        0.000617231390192
        0.445074716076920       -0.000003366314087       -0.000002100066095        0.000598897382242
        0.447493600403425       -0.000003262590882       -0.000002035361384        0.000577321874104
        0.449912484729930       -0.000003156940781       -0.000001969452591        0.000555637610577
        0.452331369056435       -0.000003033337024       -0.000001892345291        0.000531041845790
        0.454750253382940       -0.000002907623753       -0.000001813919918        0.000506338607240
        0.457169137709445       -0.000002765754054       -0.000001725417199        0.000479097613464
        0.459588022035950       -0.000002621610393       -0.000001635493755        0.000451749595405
        0.462006906362455       -0.000002463396159       -0.000001536794191        0.000422275345567
        0.464425790688960       -0.000002302763597       -0.000001436583780        0.000392693658461
        0.466844675015465       -0.000002130405403       -0.000001329060117        0.000361428482699
        0.469263559341970       -0.000001955506235       -0.000001219949040        0.000330054587816
        0.471682443668475       -0.000001771451056       -0.000001105127755        0.000297464125981
