#             time (fs)      |   total net charge (e)  |   charge (atom_1) (e)   |   charge (atom_2) (e)   |        ...        |   charge (atom_N) (e)   |
          0.000000000000000       -0.000000000000000       -0.000000000000000        0.000000000000000
          0.120944216325250        0.000000170245655       -0.150554603636112        0.150554773881767
          0.241888432650500        0.000000334944996        0.311867045049186       -0.311866710104190
          0.362832648975750        0.000000501621405       -0.448975939186967        0.448976440808372
          0.483776865301000        0.000000676912092        0.536225356891796       -0.536224679979704
          0.604721081626250        0.000000828372002       -0.558575777030838        0.558576605402840
          0.725665297951500        0.000000942028412        0.509911643630654       -0.509910701602242
          0.846609514276750        0.000000984046755       -0.392644884190122        0.392645868236877
          0.967553730602000        0.000000941306511        0.220371532207628       -0.220370590901117
          1.088497946927250        0.000000820941769       -0.019543879194570        0.019544700136338
          1.209442163252500        0.000000633986317       -0.174959299317455        0.174959933303771
          1.330386379577750        0.000000369244045        0.329834386010032       -0.329834016765987
          1.451330595903000        0.000000003355487       -0.422124676386918        0.422124679742405
          1.572274812228250       -0.000000487378805        0.441883435842815       -0.441883923221620
          1.693219028553500       -0.000001088563663       -0.389893691821408        0.389892603257745
          1.814163244878750       -0.000001801329065        0.275970247907819       -0.275972049236884
          1.935107461204000       -0.000002602601820       -0.120082948577521        0.120080345975700
          2.056051677529250       -0.000003476585570       -0.045672916947386        0.045669440361817
          2.176995893854500       -0.000004371044370        0.178856417378579       -0.178860788422949
          2.297940110179750       -0.000005233200442       -0.234119028779769        0.234113795579327
          2.418884326505000       -0.000006115725951        0.176643067578422       -0.176649183304373
          2.539828542830250       -0.000007156132010        0.001074998236957       -0.001082154368967
          2.660772759155500       -0.000008537627013       -0.262495394909704        0.262486857282691
          2.781716975480750       -0.000010432464754        0.517441185337390       -0.517451617802144
          2.902661191806000       -0.000013151194712       -0.630055149980998        0.630041998786286
          3.023605408131250       -0.000017704933380        0.461557823503111       -0.461575528436490
          3.144549624456500       -0.000025199657556        0.036140254602459       -0.036165454260015
          3.265493840781750       -0.000033917263052       -0.691237311822074        0.691203394559022
          3.386438057107000       -0.000037900379277        1.039762970264107       -1.039800870643385
          3.507382273432250       -0.000039239049896       -0.586491043584465        0.586451804534570
          3.628326489757500       -0.000043806302297       -0.459433415026373        0.459389608724076
          3.749270706082750       -0.000032702448438        1.020106663801059       -1.020139366249497
          3.870214922408000       -0.000017633094824       -0.333149934433103        0.333132301338279
          3.991159138733250       -0.000015984323703       -0.684155744558422        0.684139760234719
          4.112103355058500       -0.000009953624727        0.573827696301379       -0.573837649926107
          4.233047571383750       -0.000012515751497        0.548313675510493       -0.548326191261989
          4.353991787709000       -0.000003526209933       -0.727481002989817        0.727477476779883
          4.474936004034250       -0.000014340544884       -0.529492289030785        0.529477948485901
          4.595880220359500       -0.000011917972082        0.649346510338751       -0.649358428310833
          4.716824436684750       -0.000027339053751        0.590233383804400       -0.590260722858151
          4.837768653010000       -0.000035374649336       -0.354637772740150        0.354602398090814
          4.958712869335250       -0.000042029505952       -0.817464169131076        0.817422139625124
          5.079657085660500       -0.000037477148247       -0.038026893089449        0.037989415941202
          5.200601301985750       -0.000032253548983        0.713698462650221       -0.713730716199204
          5.321545518311000       -0.000029953248663        0.531142400118481       -0.531172353367144
          5.442489734636251       -0.000021949779934       -0.238257624320628        0.238235674540694
          5.563433950961501       -0.000013943799420       -0.779826064300854        0.779812120501433
          5.684378167286750       -0.000013888060297       -0.390866013476531        0.390852125416234
          5.805322383612000       -0.000020137032903        0.278568371083090       -0.278588508115993
          5.926266599937250       -0.000028147416841        0.734549689623822       -0.734577837040662
          6.047210816262500       -0.000040659860535        0.455815215328553       -0.455855875189088
          6.168155032587750       -0.000039237463305       -0.155284275657673        0.155245038194368
          6.289099248913001       -0.000036956990640       -0.621857784860295        0.621820827869655
          6.410043465238251       -0.000032799787542       -0.639369046086584        0.639336246299041
          6.530987681563500       -0.000022697715471       -0.160458618874942        0.160435921159471
          6.651931897888750       -0.000025599903880        0.340716172279226       -0.340741772183106
          6.772876114214000       -0.000032284919601        0.688767913409897       -0.688800198329498
          6.893820330539250       -0.000044025373305        0.549410935225862       -0.549454960599167
          7.014764546864500       -0.000041462808503        0.137129043636624       -0.137170506445128
          7.135708763189751       -0.000032460591051       -0.283407374879822        0.283374914288771
          7.256652979515001       -0.000014327127895       -0.612168470845433        0.612154143717538
          7.377597195840250       -0.000008945643716       -0.565191278899142        0.565182333255426
          7.498541412165500       -0.000015104084338       -0.298158732862825        0.298143628778487
          7.619485628490750       -0.000022360523224        0.030371812194253       -0.030394172717477
          7.740429844816000       -0.000039204826155        0.342156008021144       -0.342195212847299
          7.861374061141250       -0.000059458320131        0.564316960194066       -0.564376418514197
          7.982318277466501       -0.000073637109048        0.553808447910195       -0.553882085019243
          8.103262493791750       -0.000061029039874        0.310132034896405       -0.310193063936279
          8.224206710117000       -0.000037908152651        0.052114572834095       -0.052152480986746
          8.345150926442249       -0.000001368698503       -0.164256419850012        0.164255051151509
          8.466095142767500        0.000035134271480       -0.382591139788586        0.382626274060066
          8.587039359092751        0.000070803843540       -0.536146657476696        0.536217461320236
          8.707983575418000        0.000082018079420       -0.500348271749306        0.500430289828726
          8.828927791743251        0.000049457076900       -0.320949216116945        0.320998673193845
          8.949872008068500       -0.000011213183702       -0.144728214346555        0.144717001162853
          9.070816224393750       -0.000064584904888       -0.031636877451540        0.031572292546652
          9.191760440718999       -0.000132060348115        0.110289880348563       -0.110421940696678
          9.312704657044250       -0.000195265934094        0.235186518037816       -0.235381783971910
          9.433648873369501       -0.000249501421520        0.368866919868858       -0.369116421290378
          9.554593089694750       -0.000276470738277        0.457636916422748       -0.457913387161025
          9.675537306020001       -0.000274775969412        0.451939079659292       -0.452213855628704
          9.796481522345250       -0.000233277386313        0.342054706963089       -0.342287984349402
          9.917425738670500       -0.000181748177773        0.233202319698341       -0.233384067876114
         10.038369954995749       -0.000158244482567        0.181371046135121       -0.181529290617688
         10.159314171321000       -0.000140580882482        0.137407656479862       -0.137548237362344
         10.280258387646251       -0.000151269105961        0.138630050616845       -0.138781319722805
         10.401202603971500       -0.000171911613288        0.168575828271632       -0.168747739884919
         10.522146820296751       -0.000197146516903        0.206184888267402       -0.206382034784305
         10.643091036622000       -0.000246524856192        0.278042023093243       -0.278288547949435
         10.764035252947250       -0.000257103218516        0.343570753702874       -0.343827856921390
         10.884979469272501       -0.000270737197819        0.360834748490928       -0.361105485688747
         11.005923685597750       -0.000282949607117        0.347701945958411       -0.347984895565527
         11.126867901923001       -0.000253762782729        0.302180131491822       -0.302433894274551
         11.247812118248250       -0.000217360800869        0.256894538506854       -0.257111899307722
         11.368756334573501       -0.000203138751003        0.226637248181634       -0.226840386932637
         11.489700550898750       -0.000203957161039        0.236280870071174       -0.236484827232213
         11.610644767224001       -0.000203280403362        0.248379434482468       -0.248582714885830
         11.731588983549251       -0.000233963953467        0.282791919926760       -0.283025883880228
         11.852533199874500       -0.000248547388185        0.315673039912046       -0.315921587300230
         11.973477416199751       -0.000249875450930        0.326092651290017       -0.326342526740947
         12.094421632525000       -0.000251906299685        0.312356058082873       -0.312607964382557
         12.215365848850251       -0.000248743494052        0.291832810972293       -0.292081554466345
         12.336310065175500       -0.000229316510713        0.273203142593211       -0.273432459103924
         12.457254281500751       -0.000220663187842        0.258806456666696       -0.259027119854538
         12.578198497826001       -0.000224843097807        0.267464796324927       -0.267689639422734
         12.699142714151250       -0.000224662038251        0.280744704053305       -0.280969366091556
         12.820086930476501       -0.000233067818266        0.295601206820950       -0.295834274639216
         12.941031146801750       -0.000243863888251        0.303894326195841       -0.304138190084093
         13.061975363127001       -0.000244491478501        0.304762504411699       -0.305006995890200
         13.182919579452250       -0.000236002932688        0.292703998192350       -0.292940001125038
         13.303863795777501       -0.000234016685426        0.281203745141495       -0.281437761826921
         13.424808012102751       -0.000230551193121        0.277739621181970       -0.277970172375091
         13.545752228428000       -0.000227157552976        0.277859654810729       -0.278086812363705
         13.666696444753251       -0.000231185063312        0.284145050516593       -0.284376235579906
         13.787640661078500       -0.000236400485844        0.291953138474314       -0.292189538960158
         13.908584877403751       -0.000236997685649        0.296959368798094       -0.297196366483742
         14.029529093729000       -0.000236563047039        0.293795589767701       -0.294032152814740
         14.150473310054251       -0.000237629102940        0.289902533844730       -0.290140162947670
         14.271417526379501       -0.000233778811662        0.285655313856616       -0.285889092668279
         14.392361742704750       -0.000230948618352        0.282777205715681       -0.283008154334033
         14.513305959030001       -0.000232171270351        0.284020900447650       -0.284253071718001
         14.634250175355250       -0.000233867376209        0.287837176061072       -0.288071043437281
         14.755194391680501       -0.000234161633523        0.291057853508187       -0.291292015141711
         14.876138608005750       -0.000235769740200        0.291146205616322       -0.291381975356523
         14.997082824331001       -0.000237068595853        0.290663156840250       -0.290900225436103
         15.118027040656251       -0.000234528826535        0.288286348445984       -0.288520877272519
         15.238971256981500       -0.000232926319303        0.286157881591871       -0.286390807911174
         15.359915473306751       -0.000233178418036        0.285920839963845       -0.286154018381881
         15.480859689632000       -0.000233443956007        0.287369271895297       -0.287602715851304
         15.601803905957251       -0.000233509567977        0.288851227297526       -0.289084736865503
         15.722748122282500       -0.000235166093999        0.289442473881810       -0.289677639975809
         15.843692338607751       -0.000236149761964        0.289742932433804       -0.289979082195767
         15.964636554933001       -0.000234603150636        0.288667281174747       -0.288901884325383
         16.085580771258250       -0.000233774779554        0.287535219804660       -0.287768994584214
         16.206524987583499       -0.000233744431127        0.287160051827069       -0.287393796258196
         16.327469203908752       -0.000233518056097        0.287671557268185       -0.287905075324282
         16.448413420234001       -0.000233466793440        0.288298423026610       -0.288531889820050
         16.569357636559250       -0.000234819680515        0.288737454162765       -0.288972273843281
         16.690301852884499       -0.000235528217464        0.289045122121254       -0.289280650338718
         16.811246069209751       -0.000234546802809        0.288556351633954       -0.288790898436764
         16.932190285535000       -0.000234107232766        0.287977168630100       -0.288211275862866
         17.053134501860249       -0.000234024707939        0.287716333996840       -0.287950358704779
         17.174078718185502       -0.000233690740447        0.287924128144736       -0.288157818885183
         17.295022934510751       -0.000233593566575        0.288218811578092       -0.288452405144668
         17.415967150836000       -0.000234613705350        0.288490601488095       -0.288725215193445
         17.536911367161249       -0.000235124326258        0.288702114096104       -0.288937238422363
         17.657855583486501       -0.000234468970791        0.288439372151236       -0.288673841122027
         17.778799799811750       -0.000234208232994        0.288103972588175       -0.288338180821169
         17.899744016136999       -0.000234155322930        0.287937247023295       -0.288171402346226
         18.020688232462252       -0.000233885696285        0.288057704332296       -0.288291590028581
         18.141632448787501       -0.000233785165130        0.288234039616647       -0.288467824781777
         18.262576665112750       -0.000234475193048        0.288405206171530       -0.288639681364578
         18.383520881437999       -0.000234829235465        0.288544968221743       -0.288779797457208
         18.504465097763251       -0.000234395975765        0.288367773954977       -0.288602169930742
         18.625409314088500       -0.000234217615218        0.288138615251537       -0.288372832866755
         18.746353530413749       -0.000234211112292        0.288030913121988       -0.288265124234280
         18.867297746739002       -0.000234071260604        0.288131364661993       -0.288365435922598
         18.988241963064251       -0.000233996365053        0.288263879266078       -0.288497875631131
         19.109186179389500       -0.000234368194324        0.288369318858578       -0.288603687052902
         19.230130395714749       -0.000234574801247        0.288455546644545       -0.288690121445792
         19.351074612040001       -0.000234338666772        0.288318443499733       -0.288552782166505
         19.472018828365250       -0.000234226901213        0.288149966432843       -0.288384193334056
         19.592963044690499       -0.000234242655286        0.288086956463306       -0.288321199118592
         19.713907261015752       -0.000234214425010        0.288184030477597       -0.288418244902607
         19.834851477341001       -0.000234183176461        0.288292869500037       -0.288527052676498
         19.955795693666250       -0.000234281380346        0.288344152160186       -0.288578433540532
         20.076739909991499       -0.000234334152706        0.288383292706793       -0.288617626859499
         20.197684126316751       -0.000234299311592        0.288278925271997       -0.288513224583589
         20.318628342642000       -0.000234291292991        0.288163763530746       -0.288398054823737
         20.439572558967249       -0.000234285743247        0.288138624987691       -0.288372910730938
         20.560516775292502       -0.000234283826216        0.288225618430355       -0.288459902256571
         20.681460991617751       -0.000234296397729        0.288308724593347       -0.288543020991076
         20.802405207943000       -0.000234221551639        0.288316755035156       -0.288550976586795
         20.923349424268253       -0.000234123814123        0.288318718112367       -0.288552841926490
         21.044293640593501       -0.000234343741907        0.288252703939359       -0.288487047681266
         21.165237856918750       -0.000234619211733        0.288193134403332       -0.288427753615065
         21.286182073243999       -0.000234453514451        0.288193861149314       -0.288428314663766
         21.407126289569252       -0.000234193991149        0.288248009564430       -0.288482203555579
         21.528070505894501       -0.000234294309673        0.288289732726945       -0.288524027036619
         21.649014722219750       -0.000233956295466        0.288278588995944       -0.288512545291410
         21.769958938545003       -0.000233296777065        0.288267680662487       -0.288500977439552
         21.890903154870252       -0.000234160007007        0.288248817219774       -0.288482977226781
         22.011847371195501       -0.000235114125725        0.288238440408033       -0.288473554533758
         22.132791587520749       -0.000234790696403        0.288242882800300       -0.288477673496703
         22.253735803846002       -0.000234117045042        0.288252950900363       -0.288487067945405
         22.374680020171251       -0.000234106985435        0.288258168194628       -0.288492275180062
         22.495624236496500       -0.000234182016796        0.288255421425962       -0.288489603442758
         22.616568452821753       -0.000233995971985        0.288253930220202       -0.288487926192188
         22.737512669147002       -0.000234124888951        0.288253518875400       -0.288487643764351
         22.858456885472251       -0.000234227510355        0.288253548947160       -0.288487776457516
         22.979401101797500       -0.000234232095876        0.288253566311183       -0.288487798407059
         23.100345318122752       -0.000234231970161        0.288253566337043       -0.288487798307204
