#           time (fs)       | force (atom_1) (H/b)   |  force (atom_2) (H/b)  |           ...          |  force (atom_N) (H/b)  |
        0.000000000000000       -0.000000000000000       -0.000000000000000       -0.001977038000788       -0.000000000000000       -0.000000000000000        0.001977038000788
        0.120944216325250       -0.000002180287031        0.000004523374696        0.000743531908125        0.000002180287081       -0.000004523374696       -0.000743531908125
        0.241888432650500       -0.000020851422136        0.000041397467603        0.003419509563399        0.000020851422129       -0.000041397467603       -0.003419509563399
        0.362832648975750       -0.000055165846660        0.000108736300282        0.006017753360261        0.000055165846308       -0.000108736300282       -0.006017753360261
        0.483776865301000       -0.000104422229237        0.000204234809663        0.008518813348803        0.000104422228347       -0.000204234809663       -0.008518813348803
        0.604721081626250       -0.000173474610923        0.000324988375712        0.010896641328315        0.000173474609631       -0.000324988375712       -0.010896641328315
        0.725665297951500       -0.000251216726519        0.000468012190913        0.013138148932527        0.000251216725469       -0.000468012190913       -0.013138148932527
        0.846609514276750       -0.000341935510876        0.000629986133788        0.015227683896275        0.000341935510961       -0.000629986133788       -0.015227683896275
        0.967553730602000       -0.000438973570938        0.000807783523253        0.017159697275468        0.000438973573030       -0.000807783523253       -0.017159697275468
        1.088497946927250       -0.000527180528507        0.000997797957589        0.018920472515075        0.000527180533137       -0.000997797957589       -0.018920472515075
        1.209442163252500       -0.000644657832182        0.001196789137765        0.020506585391291        0.000644657838800       -0.001196789137765       -0.020506585391291
        1.330386379577750       -0.000735656650834        0.001401102612318        0.021908213621604        0.000735656658466       -0.001401102612318       -0.021908213621604
        1.451330595903000       -0.000871300218662        0.001607646797641        0.023125832647102        0.000871300225259       -0.001607646797641       -0.023125832647102
        1.572274812228250       -0.000977027562018        0.001812902236875        0.024153284315975        0.000977027565788       -0.001812902236875       -0.024153284315975
        1.693219028553500       -0.001092811264780        0.002013805967938        0.024991132160017        0.001092811264194       -0.002013805967938       -0.024991132160017
        1.814163244878750       -0.001198273570826        0.002207258110591        0.025638874686555        0.001198273565419       -0.002207258110591       -0.025638874686555
        1.935107461204000       -0.001275323742299        0.002389970389564        0.026093717914970        0.001275323732872       -0.002389970389564       -0.026093717914970
        2.056051677529250       -0.001371388950399        0.002559346427867        0.026360394284458        0.001371388938773       -0.002559346427867       -0.026360394284458
        2.176995893854500       -0.001445710387586        0.002711853850438        0.026433377742401        0.001445710376273       -0.002711853850438       -0.026433377742401
        2.297940110179750       -0.001530301859437        0.002845042870357        0.026318265560324        0.001530301850878       -0.002845042870357       -0.026318265560324
        2.418884326505000       -0.001602376245358        0.002955525311384        0.026011387291964        0.001602376241278       -0.002955525311384       -0.026011387291964
        2.539828542830250       -0.001651646636690        0.003040663847105        0.025516217619439        0.001651646637665       -0.003040663847105       -0.025516217619439
        2.660772759155500       -0.001669682178050        0.003097232725399        0.024831137031473        0.001669682183365       -0.003097232725399       -0.024831137031473
        2.781716975480750       -0.001681100096794        0.003122660376120        0.023960134974680        0.001681100104855       -0.003122660376120       -0.023960134974680
        2.902661191806000       -0.001646618873423        0.003113485580073        0.022900374842216        0.001646618881944       -0.003113485580073       -0.022900374842216
        3.023605408131250       -0.001645417087329        0.003067678008041        0.021660008010695        0.001645417094620       -0.003067678008041       -0.021660008010695
        3.144549624456500       -0.001593160387070        0.002981742144786        0.020236464305738        0.001593160391686       -0.002981742144786       -0.020236464305738
        3.265493840781750       -0.001549803611855        0.002853842364425        0.018638919066991        0.001549803613647       -0.002853842364425       -0.018638919066991
        3.386438057107000       -0.001457369984366        0.002681500647677        0.016871721458510        0.001457369983850       -0.002681500647677       -0.016871721458510
        3.507382273432250       -0.001320798112122        0.002462609720088        0.014941420800690        0.001320798110360       -0.002462609720088       -0.014941420800690
        3.628326489757500       -0.001170340454242        0.002196646804404        0.012863517228174        0.001170340452442       -0.002196646804404       -0.012863517228174
        3.749270706082750       -0.000972173428609        0.001881155293369        0.010641045297823        0.000972173427280       -0.001881155293369       -0.010641045297823
        3.870214922408000       -0.000792422565684        0.001516785175698        0.008294175624492        0.000792422565265       -0.001516785175698       -0.008294175624492
        3.991159138733250       -0.000573847788059        0.001102795576015        0.005833630685215        0.000573847788047       -0.001102795576015       -0.005833630685215
        4.112103355058500       -0.000346512438043        0.000641767532522        0.003286251162139        0.000346512438198       -0.000641767532522       -0.003286251162139
        4.233047571383750       -0.000073570861801        0.000135661291587        0.000672860023391        0.000073570861710       -0.000135661291587       -0.000672860023391
        4.353991787709000        0.000242803172459       -0.000411408661688       -0.001977595989287       -0.000242803172840        0.000411408661688        0.001977595989287
        4.474936004034250        0.000572148926415       -0.000995212679385       -0.004638892434161       -0.000572148926619        0.000995212679385        0.004638892434161
        4.595880220359500        0.000932731992459       -0.001610092709412       -0.007281331493528       -0.000932731992208        0.001610092709412        0.007281331493528
        4.716824436684750        0.001257042725142       -0.002247288036610       -0.009865042880957       -0.001257042724077        0.002247288036610        0.009865042880957
        4.837768653010000        0.001604608720778       -0.002898265052464       -0.012355799774167       -0.001604608719433        0.002898265052464        0.012355799774167
        4.958712869335250        0.001931688052155       -0.003551851119310       -0.014712531203217       -0.001931688051319        0.003551851119310        0.014712531203217
        5.079657085660500        0.002281072278092       -0.004196441720659       -0.016897318636569       -0.002281072278880        0.004196441720659        0.016897318636569
        5.200601301985750        0.002647862114828       -0.004820421086177       -0.018876770483857       -0.002647862118099        0.004820421086177        0.018876770483857
        5.321545518311000        0.002975310321410       -0.005409425107196       -0.020611110581806       -0.002975310327248        0.005409425107196        0.020611110581806
        5.442489734636251        0.003305843878186       -0.005951880207387       -0.022075661376347       -0.003305843885907        0.005951880207387        0.022075661376347
        5.563433950961501        0.003537530108019       -0.006431670226620       -0.023232465200758       -0.003537530115799        0.006431670226620        0.023232465200758
        5.684378167286750        0.003748257333010       -0.006838303803961       -0.024067789694980       -0.003748257338908        0.006838303803961        0.024067789694980
        5.805322383612000        0.003895403722352       -0.007158402343772       -0.024559891385075       -0.003895403724597        0.007158402343772        0.024559891385075
        5.926266599937250        0.004018046551943       -0.007382689508457       -0.024703344378471       -0.004018046549806        0.007382689508457        0.024703344378471
        6.047210816262500        0.004104963531198       -0.007502488689037       -0.024495572856475       -0.004104963525166        0.007502488689037        0.024495572856475
        6.168155032587750        0.004144569442700       -0.007511726305120       -0.023942811970378       -0.004144569434320        0.007511726305120        0.023942811970378
        6.289099248913001        0.004089022344881       -0.007405690506213       -0.023055126095737       -0.004089022336352        0.007405690506213        0.023055126095737
        6.410043465238251        0.003973270516873       -0.007184607655696       -0.021856758195112       -0.003973270510035        0.007184607655696        0.021856758195112
        6.530987681563500        0.003745547222512       -0.006847902191462       -0.020367388227479       -0.003745547218561        0.006847902191462        0.020367388227479
        6.651931897888750        0.003488820107456       -0.006401740604805       -0.018624504894069       -0.003488820106384        0.006401740604805        0.018624504894069
        6.772876114214000        0.003191982671541       -0.005851604276315       -0.016660302158258       -0.003191982672577        0.005851604276315        0.016660302158258
        6.893820330539250        0.002856935265311       -0.005204897461954       -0.014509470379305       -0.002856935267263        0.005204897461954        0.014509470379305
        7.014764546864500        0.002510146177923       -0.004472697583700       -0.012213708660425       -0.002510146179574        0.004472697583700        0.012213708660425
        7.135708763189751        0.002062892974360       -0.003662555047696       -0.009801762971060       -0.002062892975121        0.003662555047696        0.009801762971060
        7.256652979515001        0.001591173198362       -0.002790743921128       -0.007322861938018       -0.001591173198094        0.002790743921128        0.007322861938018
        7.377597195840250        0.001039147651434       -0.001866029162215       -0.004803011786361       -0.001039147650945        0.001866029162215        0.004803011786361
        7.498541412165500        0.000496805056206       -0.000905318621579       -0.002286749871638       -0.000496805055983        0.000905318621579        0.002286749871638
        7.619485628490750       -0.000034738219053        0.000080621776461        0.000199928358190        0.000034738218726       -0.000080621776461       -0.000199928358190
        7.740429844816000       -0.000553863964480        0.001081071031581        0.002633009930551        0.000553863963680       -0.001081071031581       -0.002633009930551
        7.861374061141250       -0.001047738158357        0.002083037795584        0.004984709923582        0.001047738157675       -0.002083037795584       -0.004984709923582
        7.982318277466501       -0.001592888524622        0.003079076799824        0.007242142979351        0.001592888524094       -0.003079076799824       -0.007242142979351
        8.103262493791750       -0.002128811782441        0.004054093266465        0.009375524741556        0.002128811782572       -0.004054093266465       -0.009375524741556
        8.224206710117000       -0.002701223002200        0.005004035842188        0.011382060776385        0.002701223002720       -0.005004035842188       -0.011382060776385
        8.345150926442249       -0.003219491755919        0.005915821828600        0.013238823269960        0.003219491756193       -0.005915821828600       -0.013238823269960
        8.466095142767500       -0.003684069767094        0.006786229328793        0.014945951013934        0.003684069766074       -0.006786229328793       -0.014945951013934
        8.587039359092751       -0.004103720285170        0.007608081309402        0.016494894064141        0.004103720282110       -0.007608081309402       -0.016494894064141
        8.707983575418000       -0.004459330629688        0.008372851994630        0.017874650177841        0.004459330624609       -0.008372851994630       -0.017874650177841
        8.828927791743251       -0.004854963398310        0.009081356208770        0.019094434284395        0.004854963391933       -0.009081356208770       -0.019094434284395
        8.949872008068500       -0.005212868556695        0.009722326980420        0.020137815079540        0.005212868550632       -0.009722326980420       -0.020137815079540
        9.070816224393750       -0.005586744530263        0.010297566777150        0.021015942862847        0.005586744525919       -0.010297566777150       -0.021015942862847
        9.191760440718999       -0.005885244810041        0.010799304050374        0.021720028803142        0.005885244809112       -0.010799304050374       -0.021720028803142
        9.312704657044250       -0.006105212540719        0.011224716897806        0.022251582108616        0.006105212544043       -0.011224716897806       -0.022251582108616
        9.433648873369501       -0.006251509202581        0.011572465280464        0.022614927068385        0.006251509209917       -0.011572465280464       -0.022614927068385
        9.554593089694750       -0.006353494193033        0.011838657136550        0.022809254153433        0.006353494202925       -0.011838657136550       -0.022809254153433
        9.675537306020001       -0.006436383774860        0.012020933845701        0.022836759664777        0.006436383785247       -0.012020933845701       -0.022836759664777
        9.796481522345250       -0.006535726753333        0.012119959090167        0.022705250714065        0.006535726761993       -0.012119959090167       -0.022705250714065
        9.917425738670500       -0.006580660102513        0.012127417424586        0.022405607092779        0.006580660107604       -0.012127417424586       -0.022405607092779
       10.038369954995749       -0.006571772268671        0.012045927898671        0.021949244462156        0.006571772269359       -0.012045927898671       -0.021949244462156
       10.159314171321000       -0.006463433879231        0.011869296286619        0.021331255177630        0.006463433875863       -0.011869296286619       -0.021331255177630
       10.280258387646251       -0.006251422037400        0.011594563021570        0.020552888375754        0.006251422031356       -0.011594563021570       -0.020552888375754
       10.401202603971500       -0.006022975458877        0.011225309120505        0.019626943468266        0.006022975451873       -0.011225309120505       -0.019626943468266
       10.522146820296751       -0.005739885045271        0.010752437959151        0.018543862451773        0.005739885038862       -0.010752437959151       -0.018543862451773
       10.643091036622000       -0.005483234569076        0.010182998724575        0.017322287341809        0.005483234564701       -0.010182998724575       -0.017322287341809
       10.764035252947250       -0.005161203491441        0.009509640229927        0.015955925638348        0.005161203489349       -0.009509640229927       -0.015955925638348
       10.884979469272501       -0.004769011094424        0.008734244412216        0.014454352462735        0.004769011094310       -0.008734244412216       -0.014454352462735
       11.005923685597750       -0.004271689403084        0.007858097333385        0.012825914948015        0.004271689403745       -0.007858097333385       -0.012825914948015
       11.126867901923001       -0.003684347001966        0.006881222252006        0.011076742191742        0.003684347002374       -0.006881222252006       -0.011076742191742
       11.247812118248250       -0.003054077779478        0.005809664132804        0.009222460805627        0.003054077779070       -0.005809664132804       -0.009222460805627
       11.368756334573501       -0.002418634053037        0.004646487808095        0.007273444157082        0.002418634052227       -0.004646487808095       -0.007273444157082
       11.489700550898750       -0.001774444226450        0.003396537104607        0.005242496867682        0.001774444225341       -0.003396537104607       -0.005242496867682
       11.610644767224001       -0.001108613346452        0.002072048503245        0.003153207405863        0.001108613345628       -0.002072048503245       -0.003153207405863
       11.731588983549251       -0.000370299694355        0.000677543472047        0.001016489187164        0.000370299694341       -0.000677543472047       -0.001016489187164
       11.852533199874500        0.000445684782854       -0.000769184280656       -0.001137546474723       -0.000445684781707        0.000769184280656        0.001137546474723
       11.973477416199751        0.001311914021316       -0.002258516538357       -0.003292266400706       -0.001311914019422        0.002258516538357        0.003292266400706
       12.094421632525000        0.002186292512889       -0.003771479132299       -0.005418454320964       -0.002186292511174        0.003771479132299        0.005418454320964
       12.215365848850251        0.003013574616947       -0.005287919543517       -0.007486864731084       -0.003013574616199        0.005287919543517        0.007486864731084
       12.336310065175500        0.003787734501266       -0.006786161636796       -0.009467846964510       -0.003787734501489        0.006786161636796        0.009467846964510
       12.457254281500751        0.004533188866090       -0.008242940306081       -0.011331391008304       -0.004533188866613        0.008242940306081        0.011331391008304
       12.578198497826001        0.005273175711999       -0.009636393596261       -0.013051313591625       -0.005273175711942        0.009636393596261        0.013051313591625
       12.699142714151250        0.006011549198464       -0.010939580883937       -0.014596431626047       -0.006011549196971        0.010939580883937        0.014596431626047
       12.820086930476501        0.006734072643912       -0.012134098513975       -0.015948921394227       -0.006734072640452        0.012134098513975        0.015948921394227
       12.941031146801750        0.007334969354346       -0.013184745915360       -0.017070616490780       -0.007334969348878        0.013184745915360        0.017070616490780
       13.061975363127001        0.007844658475387       -0.014080426810806       -0.017956747764272       -0.007844658469023        0.014080426810806        0.017956747764272
       13.182919579452250        0.008163624951359       -0.014785879155614       -0.018572895400410       -0.008163624945869        0.014785879155614        0.018572895400410
       13.303863795777501        0.008404773811285       -0.015298986380405       -0.018928127433614       -0.008404773808294        0.015298986380405        0.018928127433614
       13.424808012102751        0.008546566953266       -0.015597300259654       -0.019006620736231       -0.008546566953738        0.015597300259654        0.019006620736231
