#             time (fs)      |   total net charge (e)  |   charge (atom_1) (e)   |   charge (atom_2) (e)   |        ...        |   charge (atom_N) (e)   |
          0.000000000000000       -0.000000000000000       -0.000000000000000        0.000000000000000
          0.120944216325250        0.000000000010292        0.000056624993045       -0.000056624982752
          0.241888432650500       -0.000000000000836        0.000183486376057       -0.000183486376894
          0.362832648975750       -0.000000000031940        0.000350255663470       -0.000350255695410
          0.483776865301000       -0.000000000080838        0.000586891356705       -0.000586891437544
          0.604721081626250       -0.000000000147711        0.000339617857903       -0.000339618005613
          0.725665297951500       -0.000000000222603        0.000611171496948       -0.000611171719551
          0.846609514276750       -0.000000000316312       -0.000408449908952        0.000408449592640
          0.967553730602000       -0.000000000402608        0.000075591394826       -0.000075591797434
          1.088497946927250       -0.000000000510113       -0.001605530585450        0.001605530075337
          1.209442163252500       -0.000000000595096       -0.000462520795742        0.000462520200645
          1.330386379577750       -0.000000000699059       -0.002297972049819        0.002297971350761
          1.451330595903000       -0.000000000775277       -0.000189274170338        0.000189273395062
          1.572274812228250       -0.000000000860837       -0.001679029799063        0.001679028938226
          1.693219028553500       -0.000000000921147        0.001068852868858       -0.001068853790004
          1.814163244878750       -0.000000000979291        0.000051244589607       -0.000051245568898
          1.935107461204000       -0.000000001014614        0.002418282134735       -0.002418283149349
          2.056051677529250       -0.000000001039636        0.001646073846491       -0.001646074886127
          2.176995893854500       -0.000000001046011        0.002491208630075       -0.002491209676086
          2.297940110179750       -0.000000001036057        0.001782781362122       -0.001782782398178
          2.418884326505000       -0.000000001010998        0.000669871195339       -0.000669872206337
          2.539828542830250       -0.000000000970876        0.000277697837419       -0.000277698808294
          2.660772759155500       -0.000000000909959       -0.002132716439355        0.002132715529396
          2.781716975480750       -0.000000000848769       -0.001568688031472        0.001568687182703
          2.902661191806000       -0.000000000758537       -0.003956717652970        0.003956716894433
          3.023605408131250       -0.000000000681402       -0.001947264335984        0.001947263654583
          3.144549624456500       -0.000000000576688       -0.003308949920973        0.003308949344285
          3.265493840781750       -0.000000000485761       -0.000118013196523        0.000118012710762
          3.386438057107000       -0.000000000376772       -0.000501549173088        0.000501548796316
          3.507382273432250       -0.000000000286410        0.002767155348206       -0.002767155634616
          3.628326489757500       -0.000000000185682        0.002377886467730       -0.002377886653411
          3.749270706082750       -0.000000000117929        0.004423060941351       -0.004423061059280
          3.870214922408000       -0.000000000039589        0.002996872032479       -0.002996872072068
          3.991159138733250       -0.000000000001573        0.003277758376166       -0.003277758377739
          4.112103355058500        0.000000000046607        0.000663819293550       -0.000663819246944
          4.233047571383750        0.000000000052592       -0.000086225042051        0.000086225094642
          4.353991787709000        0.000000000059021       -0.002975939290008        0.002975939349029
          4.474936004034250        0.000000000020626       -0.003166351196866        0.003166351217492
          4.595880220359500       -0.000000000022267       -0.005101273506456        0.005101273484189
          4.716824436684750       -0.000000000102133       -0.003407272925875        0.003407272823743
          4.837768653010000       -0.000000000180193       -0.003911273990486        0.003911273810293
          4.958712869335250       -0.000000000280217       -0.000294876840509        0.000294876560291
          5.079657085660500       -0.000000000375258       -0.000135246358935        0.000135245983676
          5.200601301985750       -0.000000000483775        0.004012635933597       -0.004012636417372
          5.321545518311000       -0.000000000580650        0.003398472870610       -0.003398473451260
          5.442489734636251       -0.000000000682431        0.006147184680131       -0.006147185362562
          5.563433950961501       -0.000000000756236        0.003898356696653       -0.003898357452889
          5.684378167286750       -0.000000000821031        0.004098743946578       -0.004098744767608
          5.805322383612000       -0.000000000854548        0.000847146772542       -0.000847147627090
          5.926266599937250       -0.000000000868212       -0.001056032551574        0.001056031683362
          6.047210816262500       -0.000000000855247       -0.003413895457746        0.003413894602499
          6.168155032587750       -0.000000000820237       -0.005713272850560        0.005713272030324
          6.289099248913001       -0.000000000753638       -0.005320664082568        0.005320663328930
          6.410043465238251       -0.000000000675111       -0.006360976271220        0.006360975596108
          6.530987681563500       -0.000000000573071       -0.002842478717410        0.002842478144338
          6.651931897888750       -0.000000000473036       -0.002360582730409        0.002360582257373
          6.772876114214000       -0.000000000367383        0.002700874541650       -0.002700874909033
          6.893820330539250       -0.000000000266018        0.003310312245282       -0.003310312511299
          7.014764546864500       -0.000000000159219        0.007309104198848       -0.007309104358066
          7.135708763189751       -0.000000000067266        0.006130677892401       -0.006130677959667
          7.256652979515001        0.000000000026874        0.007230844549615       -0.007230844522741
          7.377597195840250        0.000000000074089        0.003527808248240       -0.003527808174151
          7.498541412165500        0.000000000117129        0.002052288481001       -0.002052288363872
          7.619485628490750        0.000000000103115       -0.002883258048292        0.002883258151408
          7.740429844816000        0.000000000105070       -0.004572799488508        0.004572799593578
          7.861374061141250        0.000000000064915       -0.008241692634096        0.008241692699010
          7.982318277466501        0.000000000046833       -0.007447894420327        0.007447894467161
          8.103262493791750       -0.000000000013403       -0.008115118278470        0.008115118265068
          8.224206710117000       -0.000000000082672       -0.003909656246704        0.003909656164033
          8.345150926442249       -0.000000000178135       -0.002153188023797        0.002153187845662
          8.466095142767500       -0.000000000288933        0.003751778475979       -0.003751778764911
          8.587039359092751       -0.000000000388245        0.005292100837960       -0.005292101226205
          8.707983575418000       -0.000000000477195        0.009697161372806       -0.009697161850001
          8.828927791743251       -0.000000000566650        0.008364535000941       -0.008364535567591
          8.949872008068500       -0.000000000632348        0.008975767192136       -0.008975767824484
          9.070816224393750       -0.000000000725865        0.004390944464155       -0.004390945190021
          9.191760440718999       -0.000000000792462        0.001592457134044       -0.001592457926505
          9.312704657044250       -0.000000000856867       -0.003717124766184        0.003717123909317
          9.433648873369501       -0.000000000900842       -0.007162325695131        0.007162324794290
          9.554593089694750       -0.000000000919042       -0.009488773496338        0.009488772577296
          9.675537306020001       -0.000000000926686       -0.010647531541363        0.010647530614677
          9.796481522345250       -0.000000000922624       -0.007962390815116        0.007962389892492
          9.917425738670500       -0.000000000898231       -0.006111248159779        0.006111247261548
         10.038369954995749       -0.000000000855769        0.000203707863201       -0.000203708718970
         10.159314171321000       -0.000000000797576        0.002972477840455       -0.002972478638031
         10.280258387646251       -0.000000000719866        0.008978609086940       -0.008978609806806
         10.401202603971500       -0.000000000644185        0.009478941420766       -0.009478942064951
         10.522146820296751       -0.000000000574722        0.011551237701151       -0.011551238275873
         10.643091036622000       -0.000000000476800        0.008214731332485       -0.008214731809285
         10.764035252947250       -0.000000000391409        0.005710997804651       -0.005710998196060
         10.884979469272501       -0.000000000261314        0.000078736451407       -0.000078736712720
         11.005923685597750       -0.000000000144767       -0.004280496154058        0.004280496009291
         11.126867901923001       -0.000000000047308       -0.008555447235696        0.008555447188388
         11.247812118248250        0.000000000037235       -0.010882522901809        0.010882522939044
         11.368756334573501        0.000000000073106       -0.010811384619106        0.010811384692212
         11.489700550898750        0.000000000123795       -0.009091556076369        0.009091556200164
         11.610644767224001        0.000000000164183       -0.004727529829350        0.004727529993533
         11.731588983549251        0.000000000207274       -0.000318810583553        0.000318810790826
         11.852533199874500        0.000000000233994        0.005146696514681       -0.005146696280687
         11.973477416199751        0.000000000213374        0.008690468463771       -0.008690468250398
         12.094421632525000        0.000000000155098        0.011215833527483       -0.011215833372384
         12.215365848850251        0.000000000068017        0.011051282183295       -0.011051282115278
         12.336310065175500       -0.000000000025656        0.008677428253542       -0.008677428279197
         12.457254281500751       -0.000000000111773        0.005020260287679       -0.005020260399452
         12.578198497826001       -0.000000000189338       -0.000766899514614        0.000766899325276
         12.699142714151250       -0.000000000285559       -0.004682323934031        0.004682323648473
         12.820086930476501       -0.000000000380334       -0.010125959281184        0.010125958900850
         12.941031146801750       -0.000000000491326       -0.010482871450251        0.010482870958925
         13.061975363127001       -0.000000000583344       -0.012337283039681        0.012337282456337
         13.182919579452250       -0.000000000647098       -0.007749345556094        0.007749344908996
         13.303863795777501       -0.000000000688333       -0.005592532412245        0.005592531723911
         13.424808012102751       -0.000000000701984        0.001614701479566       -0.001614702181550
         13.545752228428000       -0.000000000698372        0.005196710620965       -0.005196711319337
         13.666696444753251       -0.000000000670764        0.010475930013640       -0.010475930684404
         13.787640661078500       -0.000000000614899        0.011950902652442       -0.011950903267341
         13.908584877403751       -0.000000000524524        0.011773956188202       -0.011773956712725
         14.029529093729000       -0.000000000425889        0.009484314123838       -0.009484314549726
         14.150473310054251       -0.000000000329390        0.003945665286594       -0.003945665615984
         14.271417526379501       -0.000000000235630       -0.000419439604573        0.000419439368943
         14.392361742704750       -0.000000000164686       -0.007598934937873        0.007598934773187
         14.513305959030001       -0.000000000055890       -0.010101610367463        0.010101610311573
         14.634250175355250        0.000000000046047       -0.014258399889185        0.014258399935231
         14.755194391680501        0.000000000157419       -0.011731802730184        0.011731802887603
         14.876138608005750        0.000000000240211       -0.010725648039322        0.010725648279533
         14.997082824331001        0.000000000247015       -0.003452327755397        0.003452328002412
         15.118027040656251        0.000000000241891        0.000673949217165       -0.000673948975275
         15.238971256981500        0.000000000180273        0.008816770225724       -0.008816770045452
         15.359915473306751        0.000000000168092        0.011337988862757       -0.011337988694665
         15.480859689632000        0.000000000149558        0.015610742127535       -0.015610741977977
         15.601803905957251        0.000000000124609        0.012807783699349       -0.012807783574740
         15.722748122282500        0.000000000079527        0.011240625745585       -0.011240625666059
         15.843692338607751       -0.000000000052799        0.003494286083568       -0.003494286136366
         15.964636554933001       -0.000000000170841       -0.001474957698290        0.001474957527448
         16.085580771258250       -0.000000000311165       -0.009665292929412        0.009665292618247
         16.206524987583499       -0.000000000408539       -0.013007720253934        0.013007719845395
         16.327469203908752       -0.000000000461981       -0.016282328384888        0.016282327922907
         16.448413420234001       -0.000000000544409       -0.014399009194119        0.014399008649710
         16.569357636559250       -0.000000000608578       -0.010650853644421        0.010650853035842
         16.690301852884499       -0.000000000705281       -0.004414440978823        0.004414440273542
         16.811246069209751       -0.000000000790976        0.003486569054235       -0.003486569845211
         16.932190285535000       -0.000000000837620        0.009209306016435       -0.009209306854055
         17.053134501860249       -0.000000000866685        0.015520298897945       -0.015520299764630
         17.174078718185502       -0.000000000875680        0.015660446196103       -0.015660447071783
         17.295022934510751       -0.000000000872326        0.016153494195225       -0.016153495067551
         17.415967150836000       -0.000000000862355        0.009596350892115       -0.009596351754471
         17.536911367161249       -0.000000000829650        0.004764787823148       -0.004764788652798
         17.657855583486501       -0.000000000756047       -0.004490932193662        0.004490931437615
         17.778799799811750       -0.000000000678092       -0.009956873843862        0.009956873165770
         17.899744016136999       -0.000000000607837       -0.015649016930423        0.015649016322586
         18.020688232462252       -0.000000000532394       -0.016727517642942        0.016727517110548
         18.141632448787501       -0.000000000491574       -0.015034202994407        0.015034202502833
         18.262576665112750       -0.000000000387977       -0.010486250042586        0.010486249654608
         18.383520881437999       -0.000000000260863       -0.002879109464135        0.002879109203272
         18.504465097763251       -0.000000000123580        0.003693228496795       -0.003693228620376
         18.625409314088500        0.000000000028038        0.011646128964540       -0.011646128936503
         18.746353530413749        0.000000000077117        0.014625542301986       -0.014625542224870
         18.867297746739002        0.000000000122427        0.017558955336931       -0.017558955214503
         18.988241963064251        0.000000000128385        0.013770686039601       -0.013770685911216
         19.109186179389500        0.000000000161861        0.010553684559931       -0.010553684398070
         19.230130395714749        0.000000000244314        0.001801559815629       -0.001801559571315
         19.351074612040001        0.000000000288022       -0.003790475551260        0.003790475839283
         19.472018828365250        0.000000000315542       -0.012040848172133        0.012040848487675
         19.592963044690499        0.000000000247927       -0.014429132117067        0.014429132364994
         19.713907261015752        0.000000000138300       -0.017142976930470        0.017142977068770
         19.834851477341001        0.000000000034440       -0.013376014255866        0.013376014290306
         19.955795693666250       -0.000000000066951       -0.009612179305600        0.009612179238648
         20.076739909991499       -0.000000000118305       -0.001712601052907        0.001712600934602
         20.197684126316751       -0.000000000191391        0.004893566415757       -0.004893566607148
         20.318628342642000       -0.000000000284169        0.011378126038820       -0.011378126322990
         20.439572558967249       -0.000000000392958        0.015539734018931       -0.015539734411888
         20.560516775292502       -0.000000000508152        0.015673593489248       -0.015673593997401
         20.681460991617751       -0.000000000585308        0.014480140126902       -0.014480140712210
         20.802405207943000       -0.000000000627228        0.007673489330774       -0.007673489958002
         20.923349424268253       -0.000000000645766        0.002679661892442       -0.002679662538208
         21.044293640593501       -0.000000000649406       -0.006747771441380        0.006747770791974
         21.165237856918750       -0.000000000631896       -0.010828651912421        0.010828651280524
         21.286182073243999       -0.000000000587278       -0.016698831106722        0.016698830519444
         21.407126289569252       -0.000000000504259       -0.015692626952187        0.015692626447928
         21.528070505894501       -0.000000000392268       -0.014436341404227        0.014436341011960
         21.649014722219750       -0.000000000300447       -0.008062303651978        0.008062303351531
         21.769958938545003       -0.000000000223214       -0.001287321006185        0.001287320782971
         21.890903154870252       -0.000000000162530        0.006338204499363       -0.006338204661893
         22.011847371195501       -0.000000000096762        0.013101728267912       -0.013101728364674
         22.132791587520749        0.000000000022861        0.016326519475794       -0.016326519452933
         22.253735803846002        0.000000000144135        0.017840826718518       -0.017840826574383
         22.374680020171251        0.000000000244970        0.013749335727647       -0.013749335482678
         22.495624236496500        0.000000000282227        0.009100346965030       -0.009100346682804
         22.616568452821753        0.000000000226339       -0.000029658612078        0.000029658838416
         22.737512669147002        0.000000000162896       -0.006671122077376        0.006671122240273
         22.858456885472251        0.000000000106855       -0.014757353384483        0.014757353491338
         22.979401101797500        0.000000000090350       -0.017348893559733        0.017348893650083
         23.100345318122752        0.000000000115249       -0.018935323958654        0.018935324073904
