#           time (fs)    |     mu_x (e.angstrom)   |     mu_y (e.angstrom)   |     mu_z (e.angstrom)   |
        0.000000000000000       -0.000000000000000       -0.000000000000000        0.000000000000000
        0.002418884326505       -0.000000004688571        0.000000004243281       -0.000083236521593
        0.004837768653010        0.000000003298299       -0.000000002984843        0.000029274016922
        0.007256652979515        0.000000024202628       -0.000000021902686        0.000143198510215
        0.009675537306020        0.000000101226407       -0.000000091608699        0.000449168847011
        0.012094421632525        0.000000213225067       -0.000000192966080        0.000756861112127
        0.014513305959030        0.000000422178926       -0.000000382067521        0.001248723271346
        0.016932190285535        0.000000686964702       -0.000000621695791        0.001741524403603
        0.019351074612040        0.000001084990715       -0.000000981904900        0.002406586667113
        0.021769958938545        0.000001557575128       -0.000001409587772        0.003070747893191
        0.024188843265050        0.000002193317795       -0.000001984924613        0.003891447692211
        0.026607727591555        0.000002919345625       -0.000002641966006        0.004708411948766
        0.029026611918060        0.000003830445471       -0.000003466487901        0.005662670743072
        0.031445496244565        0.000004843776047       -0.000004383520329        0.006609454867025
        0.033864380571070        0.000006054678675       -0.000005479336049        0.007671128507855
        0.036283264897575        0.000007375307139       -0.000006674436141        0.008720798962143
        0.038702149224080        0.000008895455511       -0.000008050066734        0.009860215229266
        0.041121033550585        0.000010527838982       -0.000009527237394        0.010982448527652
        0.043539917877090        0.000012350307407       -0.000011176377418        0.012167021889012
        0.045958802203595        0.000014282151227       -0.000012924447460        0.013328739295920
        0.048377686530100        0.000016382768877       -0.000014825170897        0.014523651486476
        0.050796570856605        0.000018584316996       -0.000016817153037        0.015689716177277
        0.053215455183110        0.000020921317011       -0.000018931597432        0.016858649952846
        0.055634339509615        0.000023345178484       -0.000021124534406        0.017992613644826
        0.058053223836120        0.000025859396064       -0.000023399085109        0.019098526051741
        0.060472108162625        0.000028440926733       -0.000025734401683        0.020163411169413
        0.062890992489130        0.000031056556389       -0.000028100385630        0.021169331891736
        0.065309876815635        0.000033714801421       -0.000030504751620        0.022128434621065
        0.067728761142140        0.000036340709987       -0.000032879637249        0.022998274430440
        0.070147645468645        0.000038979899247       -0.000035266333683        0.023815973550858
        0.072566529795150        0.000041511477515       -0.000037555420540        0.024515327594045
        0.074985414121655        0.000044023052046       -0.000039826188079        0.025157883758950
        0.077404298448160        0.000046344574342       -0.000041924756832        0.025654814377190
        0.079823182774665        0.000048609708648       -0.000043972092794        0.026091144545874
        0.082242067101170        0.000050597156381       -0.000045767973969        0.026356928530597
        0.084660951427675        0.000052489728109       -0.000047477832131        0.026559340539566
        0.087079835754180        0.000054014020713       -0.000048854340295        0.026569166191671
        0.089498720080685        0.000055403966863       -0.000050109176363        0.026514038992572
        0.091917604407190        0.000056334531701       -0.000050948345913        0.026247639067725
        0.094336488733695        0.000057091518993       -0.000051630441403        0.025916034952581
        0.096755373060200        0.000057300121137       -0.000051816490919        0.025358242540849
        0.099174257386705        0.000057297447868       -0.000051811479490        0.024736438720225
        0.101593141713210        0.000056662191383       -0.000051234423920        0.023877654319630
        0.104012026039715        0.000055780829364       -0.000050434937100        0.022957582509287
        0.106430910366220        0.000054190234150       -0.000048994261147        0.021794141999691
        0.108849794692725        0.000052322912398       -0.000047303605073        0.020573726194031
        0.111268679019230        0.000049679965106       -0.000044911907070        0.019108161084319
        0.113687563345735        0.000046735192147       -0.000042247678514        0.017591545432032
        0.116106447672240        0.000042961266370       -0.000038834192021        0.015832728617052
        0.118525331998745        0.000038867185585       -0.000035131740554        0.014030389240037
        0.120944216325250        0.000033905725737       -0.000030645640874        0.011993561533930
        0.123363100651755        0.000028613698299       -0.000025861284681        0.009922298211394
        0.125781984978260        0.000022433563386       -0.000020274689438        0.007628973083598
        0.128200869304765        0.000015921376118       -0.000014388594978        0.005311778919241
        0.130619753631270        0.000008519744126       -0.000007699171946        0.002789525104880
        0.133038637957775        0.000000794345112       -0.000000717812296        0.000255334560350
        0.135457522284280       -0.000007800914111        0.000007049086439       -0.002462561500083
        0.137876406610785       -0.000016701241279        0.000015090973110       -0.005179243537048
        0.140295290937290       -0.000026429807128        0.000023880723758       -0.008054231203553
        0.142714175263795       -0.000036433909041        0.000032918745750       -0.010913814393725
        0.145133059590300       -0.000047201935804        0.000042646475752       -0.013902641846318
        0.147551943916805       -0.000058204960808        0.000052585829457       -0.016861042320518
        0.149970828243310       -0.000069884744543        0.000063136103174       -0.019916420565618
        0.152389712569815       -0.000081748071672        0.000073851493111       -0.022925750651555
        0.154808596896320       -0.000094178499606        0.000085078700051       -0.025997108048942
        0.157227481222825       -0.000106730460510        0.000096414972538       -0.029006452784381
        0.159646365549330       -0.000119718267676        0.000108144444034       -0.032040767881659
        0.162065249875835       -0.000132755680365        0.000119917955406       -0.034997035620377
        0.164484134202340       -0.000146077520951        0.000131947820655       -0.037939734557599
        0.166903018528845       -0.000159368036797        0.000143948545575       -0.040788567529466
        0.169321902855350       -0.000172773360130        0.000156052322137       -0.043584470997125
        0.171740787181855       -0.000186058608040        0.000168046691456       -0.046271200487139
        0.174159671508360       -0.000199273311646        0.000179976588903       -0.048865504200715
        0.176578555834865       -0.000212272805983        0.000191711029927       -0.051336134076388
        0.178997440161370       -0.000225003621073        0.000203201928678       -0.053675405978873
        0.181416324487875       -0.000237419383019        0.000214407063981       -0.055877607627729
        0.183835208814380       -0.000249358931349        0.000225181114771       -0.057910784551654
        0.186254093140885       -0.000260880757253        0.000235576559185       -0.059794885893716
        0.188672977467390       -0.000271713202712        0.000245348332510       -0.061474252206852
        0.191091861793895       -0.000282024497727        0.000254648012049       -0.062994203321223
        0.193510746120400       -0.000291431701502        0.000263130111697       -0.064276334144173
        0.195929630446905       -0.000300215782606        0.000271048013305       -0.065390632193445
        0.198348514773410       -0.000307883857422        0.000277957054159       -0.066237284111185
        0.200767399099915       -0.000314830616987        0.000284213301825       -0.066909840661718
        0.203186283426420       -0.000320456763930        0.000289276139909       -0.067288773453157
        0.205605167752925       -0.000325269573387        0.000293603281152       -0.067489707972357
        0.208024052079430       -0.000328569074345        0.000296563373784       -0.067375421750642
        0.210442936405935       -0.000330971797537        0.000298712751306       -0.067081766013252
        0.212861820732440       -0.000331685027520        0.000299336517586       -0.066456139302557
        0.215280705058945       -0.000331429005163        0.000299084594177       -0.065652438654338
        0.217699589385450       -0.000329328322044        0.000297167641119       -0.064505254321963
        0.220118473711955       -0.000326199182625        0.000294322142061       -0.063184053225799
        0.222537358038460       -0.000321095547326        0.000289695219701       -0.061513400833787
        0.224956242364965       -0.000314919696173        0.000284100956032       -0.059675601850720
        0.227375126691470       -0.000306668874478        0.000276635505854       -0.057488146875738
        0.229794011017975       -0.000297319511820        0.000268179743979       -0.055143234195941
        0.232212895344480       -0.000285827710027        0.000257792909084       -0.052454346669867
        0.234631779670985       -0.000273230231052        0.000246410157360       -0.049620467482890
        0.237050663997490       -0.000258459021932        0.000233069129742       -0.046454204901436
        0.239469548323995       -0.000242595657371        0.000218745220598       -0.043158104249722
        0.241888432650500       -0.000224566060604        0.000202470810585       -0.039547046046306
        0.244307316977005       -0.000205479625382        0.000185246167340       -0.035823853301010
        0.246726201303510       -0.000184275217860        0.000166115492394       -0.031808786743586
        0.249145085630015       -0.000162071847966        0.000146087482823       -0.027701654429763
        0.251563969956520       -0.000137840794098        0.000124235687197       -0.023331114418497
        0.253982854283025       -0.000112691567914        0.000101559980833       -0.018890712744300
        0.256401738609530       -0.000085647478195        0.000077180913679       -0.014220380611969
        0.258820622936035       -0.000057788837856        0.000052071776484       -0.009504253666470
        0.261239507262540       -0.000028210385080        0.000025417573604       -0.004596222653275
        0.263658391589045        0.000002056704368       -0.000001852948398        0.000331985228267
        0.266077275915550        0.000033827458209       -0.000030473415201        0.005410067695663
        0.268496160242055        0.000066139649606       -0.000059577452632        0.010481504498049
        0.270915044568560        0.000099700237082       -0.000089801274964        0.015657405301048
        0.273333928895065        0.000133635253501       -0.000120358241566        0.020799009707480
        0.275752813221570        0.000168527090711       -0.000151772318691        0.025996974802947
        0.278171697548075        0.000203608473909       -0.000183353156476        0.031132565276351
        0.280590581874580        0.000239322421923       -0.000215499159690        0.036274464411913
        0.283009466201085        0.000275025534236       -0.000247631690776        0.041325902145813
        0.285428350527590        0.000311008673282       -0.000280012102202        0.046332435659472
        0.287847234854095        0.000346767883671       -0.000312187434244        0.051220843133429
        0.290266119180600        0.000382431414381       -0.000344272593256        0.056012791743003
        0.292685003507105        0.000417648373971       -0.000375952504237        0.060659807497380
        0.295103887833610        0.000452376535645       -0.000407188573825        0.065159305075568
        0.297522772160115        0.000486429424555       -0.000437813781081        0.069488354521721
        0.299941656486620        0.000519589298201       -0.000467631525994        0.073620163269806
        0.302360540813125        0.000551842904213       -0.000496630723992        0.077557724878366
        0.304779425139630        0.000582794948443       -0.000524454972764        0.081250492055856
        0.307198309466135        0.000612611419413       -0.000551254504679        0.084727338116148
        0.309617193792640        0.000640720570378       -0.000576514149115        0.087914813550713
        0.312036078119145        0.000667470666409       -0.000600548159158        0.090867204864002
        0.314454962445650        0.000692117818930       -0.000622686527969        0.093489398849610
        0.316873846772155        0.000715192477390       -0.000643407425185        0.095860213201566
        0.319292731098660        0.000735786153400       -0.000661892853781        0.097864475085095
        0.321711615425165        0.000754608169769       -0.000678781904240        0.099604250131676
        0.324130499751670        0.000770596172040       -0.000693118310779        0.100946248881683
        0.326549384078175        0.000784631792408       -0.000705696164358        0.102014121170468
        0.328968268404680        0.000795512636292       -0.000715433433616        0.102658710508096
        0.331387152731185        0.000804282852994       -0.000723270384369        0.103023233736317
        0.333806037057690        0.000809616766564       -0.000728014356297        0.102945185978533
        0.336224921384195        0.000812708106992       -0.000730740132366        0.102585013250561
        0.338643805710700        0.000812127390503       -0.000730161991849        0.101769607858996
        0.341062690037205        0.000809201990622       -0.000727474872234        0.100674024637959
        0.343481574363710        0.000802420529758       -0.000721319740771        0.099117479567988
        0.345900458690215        0.000793225288399       -0.000712994802301        0.097286776202256
        0.348319343016720        0.000780047022439       -0.000701089341253        0.094996512486871
        0.350738227343225        0.000764421640195       -0.000686985649883        0.092442187610083
        0.353157111669730        0.000744747796214       -0.000669244498467        0.089436920165200
        0.355575995996235        0.000722631514025       -0.000649311074269        0.086181708888873
        0.357994880322740        0.000696466431779       -0.000625741963369        0.082491359257119
        0.360413764649245        0.000667903299104       -0.000600022368007        0.078569082860325
        0.362832648975750        0.000635358688447       -0.000570729772597        0.074234512477286
        0.365251533302255        0.000600501209643       -0.000539365191158        0.069689749203289
        0.367670417628760        0.000561798703376       -0.000504552409147        0.064762314724573
        0.370089301955265        0.000520909733427       -0.000467783124151        0.059649894267529
        0.372508186281770        0.000476381623341       -0.000427752696934        0.054190829481467
        0.374927070608275        0.000429834410505       -0.000385917880553        0.048575156729927
        0.377345954934780        0.000379922482923       -0.000341070299813        0.042654788539987
        0.379764839261285        0.000328198785811       -0.000294606079903        0.036609005077302
        0.382183723587790        0.000273451204831       -0.000245436755380        0.030305813909091
        0.384602607914295        0.000217137444672       -0.000194872541185        0.023910808592940
        0.387021492240800        0.000158203666067       -0.000141967034554        0.017310346303008
        0.389440376567305        0.000097985110656       -0.000087920118161        0.010653628898212
        0.391859260893810        0.000035608846260       -0.000031947678234        0.003847309779247
        0.394278145220315       -0.000027738140262        0.000024883842411       -0.002978235954262
        0.396697029546820       -0.000092727849655        0.000083178378746       -0.009894453215139
        0.399115913873325       -0.000158345418581        0.000142024280761       -0.016791918421123
        0.401534798199830       -0.000225044925310        0.000201830129420       -0.023718938010060
        0.403953682526335       -0.000292005105658        0.000261858247796       -0.030588819217590
        0.406372566852840       -0.000359448538029        0.000322309741090       -0.037425883234078
        0.408791451179345       -0.000426766201133        0.000382637525224       -0.044167572512313
        0.411210335505850       -0.000493939336838        0.000442826453929       -0.050813781051306
        0.413629219832355       -0.000560586580035        0.000502533745050       -0.057327092783102
        0.416048104158860       -0.000626442006851        0.000561522811107       -0.063682945423691
        0.418466988485365       -0.000691363741302        0.000619665664603       -0.069869655872463
        0.420885872811870       -0.000754837072391        0.000676502854627       -0.075838590411889
        0.423304757138375       -0.000816967572342        0.000732128209756       -0.081603965863703
        0.425723641464880       -0.000876994458544        0.000785861879285       -0.087093869990412
        0.428142525791385       -0.000935274606291        0.000838022858947       -0.092348159239222
        0.430561410117890       -0.000990808267896        0.000887717299022       -0.097272831070613
        0.432980294444395       -0.001044203210883        0.000935488904554       -0.101932698374076
        0.435399178770900       -0.001094232196820        0.000980240146209       -0.106213232386110
        0.437818063097405       -0.001141749120849        0.001022735096860       -0.110203107744713
        0.440236947423910       -0.001185314994269        0.001061686695757       -0.113769183581580
        0.442655831750415       -0.001226020709894        0.001098071150207       -0.117022508274595
        0.445074716076920       -0.001262235355585        0.001130429683707       -0.119813561235063
        0.447493600403425       -0.001295273393241        0.001159938572313       -0.122273907970765
        0.449912484729930       -0.001323335644146        0.001184988575275       -0.124240161609206
        0.452331369056435       -0.001347942557207        0.001206940267365       -0.125862210399159
        0.454750253382940       -0.001367153844134        0.001224058331638       -0.126965553636711
        0.457169137709445       -0.001382674427634        0.001237868362803       -0.127715906566978
        0.459588022035950       -0.001392453167759        0.001246536129374       -0.127930599961419
        0.462006906362455       -0.001398354313505        0.001251729719907       -0.127788420385437
        0.464425790688960       -0.001398248769071        0.001251545502445       -0.127101618732154
        0.466844675015465       -0.001394131695070        0.001247768610274       -0.126059083023900
        0.469263559341970       -0.001383831053446        0.001238457404677       -0.124471164224412
        0.471682443668475       -0.001369441666574        0.001225486074523       -0.122533717073407
