#           time (fs)       | force (atom_1) (H/b)   |  force (atom_2) (H/b)  |           ...          |  force (atom_N) (H/b)  |
        0.000000000000000       -0.000000000000000       -0.000000000000000       -0.001977038000788       -0.000000000000000       -0.000000000000000        0.001977038000788
        0.120944216325250       -0.000004719340160       -0.000033697266075        0.000687008562556        0.000004719340160        0.000033697266900       -0.000687008562556
        0.241888432650500       -0.000045814468203       -0.000105970451215        0.003351123488617        0.000045814468203        0.000105970453683       -0.003351123488617
        0.362832648975750       -0.000120592732941        0.000009691330554        0.005909264666968        0.000120592732941       -0.000009691342957       -0.005909264666968
        0.483776865301000       -0.000228708418517        0.000302612116319        0.008445775946956        0.000228708418517       -0.000302612103410       -0.008445775946956
        0.604721081626250       -0.000363608182124        0.000222474292447        0.010792523346077        0.000363608182124       -0.000222474279963       -0.010792523346077
        0.725665297951500       -0.000527182560598       -0.000454501168713        0.013099654657460        0.000527182560598        0.000454501105906       -0.013099654657460
        0.846609514276750       -0.000711784353582       -0.000880425373933        0.015227589287067        0.000711784353582        0.000880425542664       -0.015227589287067
        0.967553730602000       -0.000911625476980       -0.000157929438394        0.017138374659290        0.000911625476980        0.000157929253555       -0.017138374659290
        1.088497946927250       -0.001133724309525        0.001023810467521        0.019023682267956        0.001133724309525       -0.001023810368107       -0.019023682267956
        1.209442163252500       -0.001358115489743        0.000995479389012        0.020590632140967        0.001358115489743       -0.000995479267531       -0.020590632140967
        1.330386379577750       -0.001603516314534       -0.000266430905771        0.022183355611942        0.001603516314534        0.000266430555774       -0.022183355611942
        1.451330595903000       -0.001843519792206       -0.000714808277409        0.023460149651795        0.001843519792206        0.000714808786963       -0.023460149651795
        1.572274812228250       -0.002066163040629        0.000797068654006        0.024350145650958        0.002066163040629       -0.000797069062869       -0.024350145650958
        1.693219028553500       -0.002304723084354        0.002330102003120        0.025297667017838        0.002304723084354       -0.002330101896798       -0.025297667017838
        1.814163244878750       -0.002518387113662        0.001374298994533        0.025871348305836        0.002518387113662       -0.001374298738714       -0.025871348305836
        1.935107461204000       -0.002747041581142       -0.000935996008575        0.026522570734683        0.002747041581142        0.000935995534818       -0.026522570734683
        2.056051677529250       -0.002933555696498       -0.001075232846259        0.026716471403216        0.002933555696498        0.001075233367331       -0.026716471403216
        2.176995893854500       -0.003049968238175        0.001573096085025        0.026284352882761        0.003049968238175       -0.001573096417703       -0.026284352882761
        2.297940110179750       -0.003213614558304        0.003255880257489        0.026280290234158        0.003213614558304       -0.003255880232865       -0.026280290234158
        2.418884326505000       -0.003338976124902        0.001006259133924        0.025975329402060        0.003338976124902       -0.001006258853846       -0.025975329402060
        2.539828542830250       -0.003498508468073       -0.002264667255305        0.025947731499922        0.003498508468073        0.002264666777411       -0.025947731499922
        2.660772759155500       -0.003565634315792       -0.001835949782589        0.025262512123320        0.003565634315792        0.001835950226273       -0.025262512123320
        2.781716975480750       -0.003515464872458        0.001854084776180        0.023834786723150        0.003515464872458       -0.001854085018983       -0.023834786723150
        2.902661191806000       -0.003568895990305        0.003541265015116        0.023192054560100        0.003568895990305       -0.003541265048938       -0.023192054560100
        3.023605408131250       -0.003587495282583        0.000487643249877        0.022376578822056        0.003587495282583       -0.000487643079285       -0.022376578822056
        3.144549624456500       -0.003670813818265       -0.002873813496010        0.022005041432404        0.003670813818265        0.002873813365376       -0.022005041432404
        3.265493840781750       -0.003620177466292       -0.001713820188718        0.020881174730636        0.003620177466292        0.001713820041793       -0.020881174730636
        3.386438057107000       -0.003432633949139        0.002228918463343        0.019071228939151        0.003432633949139       -0.002228918311391       -0.019071228939151
        3.507382273432250       -0.003364486321445        0.003228943466396        0.018022511832464        0.003364486321445       -0.003228943330775       -0.018022511832464
        3.628326489757500       -0.003230872479916       -0.000279613173916        0.016701050776965        0.003230872479916        0.000279612491972       -0.016701050776965
        3.749270706082750       -0.003109067500317       -0.002987853784772        0.015521382360254        0.003109067500317        0.002987854955848       -0.015521382360254
        3.870214922408000       -0.002831392682396       -0.001117301664103        0.013661420809293        0.002831392682396        0.001117300341132       -0.013661420809293
        3.991159138733250       -0.002392921385819        0.002051773494248        0.011166383260208        0.002392921385819       -0.002051772975034       -0.011166383260208
        4.112103355058500       -0.002092169545312        0.001252437170846        0.009447974862858        0.002092169545312       -0.001252436473236       -0.009447974862858
        4.233047571383750       -0.001689072641960       -0.003248842765770        0.007385785612068        0.001689072641960        0.003248840863285       -0.007385785612068
        4.353991787709000       -0.001265122869511       -0.005442470045926        0.005359425339016        0.001265122869511        0.005442472600737       -0.005359425339016
        4.474936004034250       -0.000755113408523       -0.002832979763975        0.003100628962614        0.000755113408523        0.002832977549090       -0.003100628962614
        4.595880220359500       -0.000138119791703       -0.000043880321035        0.000549980608385        0.000138119791703        0.000043880792204       -0.000549980608385
        4.716824436684750        0.000227222845491       -0.001642794181078       -0.000877779480528       -0.000227222845491        0.001642795774224        0.000877779480528
        4.837768653010000        0.000680960617215       -0.006005008965291       -0.002553161773876       -0.000680960617215        0.006005005614145        0.002553161773876
        4.958712869335250        0.001142441707688       -0.007144494848244       -0.004158956010647       -0.001142441707688        0.007144498846927        0.004158956010647
        5.079657085660500        0.001691297815843       -0.004169559251108       -0.005980376582505       -0.001691297815843        0.004169556421616        0.005980376582505
        5.200601301985750        0.002386315799261       -0.002604451686952       -0.008198852155332       -0.002386315799261        0.002604451727709        0.008198852155332
        5.321545518311000        0.002876705760513       -0.005826842322052       -0.009607080267131       -0.002876705760513        0.005826845213104        0.009607080267131
        5.442489734636251        0.003453540110268       -0.010489033424487       -0.011214562517802       -0.003453540110268        0.010489028440805        0.011214562517802
        5.563433950961501        0.003992911795070       -0.010637749094656       -0.012611838059701       -0.003992911795070        0.010637754171567        0.012611838059701
        5.684378167286750        0.004392826562009       -0.006803742393946       -0.013500552115018       -0.004392826562009        0.006803739551128        0.013500552115018
        5.805322383612000        0.004795572127126       -0.005437459462478       -0.014345453594091       -0.004795572127126        0.005437458726109        0.014345453594091
        5.926266599937250        0.004849029039956       -0.008831855005295       -0.014123511725630       -0.004849029039956        0.008831859043333        0.014123511725630
        6.047210816262500        0.005024437332640       -0.012525753864023       -0.014254021499047       -0.005024437332640        0.012525748104513        0.014254021499047
        6.168155032587750        0.005295797943693       -0.011193939612163       -0.014638342965186       -0.005295797943693        0.011193944612470        0.014638342965186
        6.289099248913001        0.005472343549701       -0.007100655740105       -0.014743260216124       -0.005472343549701        0.007100653592601        0.014743260216124
        6.410043465238251        0.005685255028883       -0.007224878839043       -0.014934119948530       -0.005685255028883        0.007224877318856        0.014934119948530
        6.530987681563500        0.005382480643146       -0.011824468624181       -0.013790253860955       -0.005382480643146        0.011824473163693        0.013790253860955
        6.651931897888750        0.005069073417973       -0.014602593641873       -0.012671547987195       -0.005069073417973        0.014602588366123        0.012671547987195
        6.772876114214000        0.004767362492207       -0.010927270228058       -0.011631666719097       -0.004767362492207        0.010927274013910        0.011631666719097
        6.893820330539250        0.004274062975849       -0.005453145751419       -0.010181656349389       -0.004274062975849        0.005453144625106        0.010181656349389
        7.014764546864500        0.003885799888132       -0.006193452321172       -0.009041109696671       -0.003885799888132        0.006193450458756        0.009041109696671
        7.135708763189751        0.003152738956953       -0.011481442276045       -0.007167068433777       -0.003152738956953        0.011481446112449        0.007167068433777
        7.256652979515001        0.002718273328529       -0.013179507098955       -0.006039547659101       -0.002718273328529        0.013179503969069        0.006039547659101
        7.377597195840250        0.002669764194195       -0.007921913031137       -0.005799459437127       -0.002669764194195        0.007921914589253        0.005799459437127
        7.498541412165500        0.002194137483040       -0.002639189319680       -0.004661459906052       -0.002194137483040        0.002639189098496        0.004661459906052
        7.619485628490750        0.001557569837281       -0.005661502640699       -0.003237330065355       -0.001557569837281        0.005661501525101        0.003237330065355
        7.740429844816000        0.000265001791596       -0.011917507804875       -0.000539018406779       -0.000265001791596        0.011917509161194        0.000539018406779
        7.861374061141250       -0.000445278882338       -0.011553572716483        0.000886611059379        0.000445278882338        0.011553573228634       -0.000886611059379
        7.982318277466501       -0.000307028651493       -0.003824500053989        0.000598620414114        0.000307028651493        0.003824499107162       -0.000598620414114
        8.103262493791750       -0.000807753147413        0.000918081093766        0.001542565194588        0.000807753147413       -0.000918081145440       -0.001542565194588
        8.224206710117000       -0.001649456219278       -0.005363589728457        0.003086126874557        0.001649456219278        0.005363590746361       -0.003086126874557
        8.345150926442249       -0.002662419563751       -0.013199451456807        0.004881667009641        0.002662419563751        0.013199449214930       -0.004881667009641
        8.466095142767500       -0.001878865314450       -0.011224265760073        0.003376847776232        0.001878865314450        0.011224269744081       -0.003376847776232
        8.587039359092751        0.000530119969186       -0.003180005993474       -0.000934145813676       -0.000530119969186        0.003180003450907        0.000934145813676
        8.707983575418000        0.000764335027814       -0.002379664566429       -0.001320825564758       -0.000764335027814        0.002379663609895        0.001320825564758
        8.828927791743251       -0.000264301013675       -0.014725503266263        0.000447996525555        0.000264301013675        0.014725507400517       -0.000447996525555
        8.949872008068500        0.000417681693348       -0.025135415181670       -0.000694584051485       -0.000417681693348        0.025135409895746        0.000694584051485
        9.070816224393750        0.005994694146746       -0.022272124074745       -0.009782249615535       -0.005994694146746        0.022272131689767        0.009782249615535
        9.191760440718999        0.012869459587580       -0.016418342079121       -0.020611637064167       -0.012869459587580        0.016418336538596        0.020611637064167
        9.312704657044250        0.012256500222961       -0.022417318817307       -0.019270318511571       -0.012256500222961        0.022417312076054        0.019270318511571
        9.433648873369501        0.011475098743164       -0.043884720412475       -0.017715058369465       -0.011475098743164        0.043884736222281        0.017715058369465
        9.554593089694750        0.024375731428093       -0.063197315255237       -0.036957915989868       -0.024375731428093        0.063197298564446        0.036957915989868
        9.675537306020001        0.045492160601602       -0.065301294960667       -0.067757923934620       -0.045492160601602        0.065301335249817        0.067757923934620
        9.796481522345250        0.050324859004391       -0.061189302518802       -0.073655282933457       -0.050324859004391        0.061189281724669        0.073655282933457
        9.917425738670500        0.047495116016019       -0.085663575209263       -0.068329954958618       -0.047495116016019        0.085663553264416        0.068329954958618
       10.038369954995749        0.089965459560177       -0.153058938257612       -0.127276164084238       -0.089965459560177        0.153058954628806        0.127276164084238
       10.159314171321000        0.124547577573017       -0.152592458616957       -0.173346613142632       -0.124547577573017        0.152592206035619        0.173346613142632
       10.280258387646251        0.094151735614693       -0.089871869996882       -0.128989017018172       -0.094151735614693        0.089871944619583        0.128989017018172
       10.401202603971500        0.147957836910132       -0.202000442815081       -0.199655348091138       -0.147957836910132        0.202000452387562        0.199655348091138
       10.522146820296751        0.111385676763505       -0.128734508469493       -0.148149910359476       -0.111385676763505        0.128734328362918        0.148149910359476
       10.643091036622000        0.082164957166060       -0.075283765033798       -0.107800503763459       -0.082164957166060        0.075283398527423        0.107800503763459
       10.764035252947250        0.060910218424010       -0.116754635114842       -0.078891465945481       -0.060910218424010        0.116754541097652        0.078891465945481
       10.884979469272501        0.027204400329328       -0.059598520156240       -0.034811191740739       -0.027204400329328        0.059598468274146        0.034811191740739
       11.005923685597750        0.030385291805571       -0.045175652153415       -0.038441586586248       -0.030385291805571        0.045175674016608        0.038441586586248
       11.126867901923001        0.052945479842477       -0.095127635448727       -0.066270670438688       -0.052945479842477        0.095127651463794        0.066270670438688
       11.247812118248250        0.028538589183069        0.007373198192749       -0.035363905528002       -0.028538589183069       -0.007372775156811        0.035363905528002
       11.368756334573501        0.062701139439560       -0.086018710621380       -0.076966517370041       -0.062701139439560        0.086018823137920        0.076966517370041
       11.489700550898750       -0.005220086158627       -0.012403652698864        0.006351146356526        0.005220086158627        0.012403655476526       -0.006351146356526
       11.610644767224001        0.010039539718629       -0.020801262684567       -0.012113461945493       -0.010039539718629        0.020801321710949        0.012113461945493
       11.731588983549251        0.040240693707289       -0.069733129936566       -0.048173896443576       -0.040240693707289        0.069733075234032        0.048173896443576
       11.852533199874500       -0.008995920159084        0.060745736622294        0.010690082211839        0.008995920159084       -0.060745821632033       -0.010690082211839
       11.973477416199751        0.014001969158734       -0.044640366478828       -0.016523287466121       -0.014001969158734        0.044640248854665        0.016523287466121
       12.094421632525000        0.014794482261666       -0.023829556679380       -0.017343899391673       -0.014794482261666        0.023829574612653        0.017343899391673
       12.215365848850251       -0.008539459281691       -0.001497498076436        0.009948845245914        0.008539459281691        0.001497482442038       -0.009948845245914
       12.336310065175500       -0.005815789812262        0.042599554379834        0.006735813034439        0.005815789812262       -0.042599943012168       -0.006735813034439
       12.457254281500751        0.023430372793271       -0.046917316345889       -0.026985539975981       -0.023430372793271        0.046917405266194        0.026985539975981
       12.578198497826001        0.009968171672544       -0.026905985427728       -0.011419854331245       -0.009968171672544        0.026905913358183        0.011419854331245
       12.699142714151250       -0.014374651853271        0.027407647445127        0.016385143759673        0.014374651853271       -0.027407674347808       -0.016385143759673
       12.820086930476501       -0.011194455990490        0.034662477760931        0.012699016069741        0.011194455990490       -0.034662391839874       -0.012699016069741
       12.941031146801750        0.011219649933896       -0.033515839023141       -0.012669463434402       -0.011219649933896        0.033515811109622        0.012669463434402
       13.061975363127001        0.021744834485252       -0.034602168806541       -0.024447693669622       -0.021744834485252        0.034602458879462        0.024447693669622
       13.182919579452250        0.013567346868312       -0.006403734801723       -0.015190266816453       -0.013567346868312        0.006403584716486        0.015190266816453
       13.303863795777501       -0.024781125886145        0.035070790124811        0.027635115813868        0.024781125886145       -0.035070775534189       -0.027635115813868
       13.424808012102751       -0.023095374675139        0.013609856367574        0.025657272481106        0.023095374675139       -0.013609458609779       -0.025657272481106
