#           time (fs)    |     mu_x (e.angstrom)   |     mu_y (e.angstrom)   |     mu_z (e.angstrom)   |
        0.000000000000000       -0.000000000000000       -0.000000000000000        0.000000000000000
        0.002418884326505        0.000000018783884       -0.000000018454622       -0.000136061203584
        0.004837768653010        0.000000075126254       -0.000000073806721       -0.000272113349742
        0.007256652979515        0.000000168116403       -0.000000165165555       -0.000405995496445
        0.009675537306020        0.000000298025021       -0.000000292790426       -0.000539842203577
        0.012094421632525        0.000000461841025       -0.000000453732389       -0.000669330127969
        0.014513305959030        0.000000661289354       -0.000000649674121       -0.000798730683786
        0.016932190285535        0.000000890122817       -0.000000874492673       -0.000921627746314
        0.019351074612040        0.000001152643068       -0.000001132396835       -0.001044361687851
        0.021769958938545        0.000001438332251       -0.000001413073269       -0.001158527184317
        0.024188843265050        0.000001755103473       -0.000001724273426       -0.001272432599680
        0.026607727591555        0.000002087269990       -0.000002050611146       -0.001375819238209
        0.029026611918060        0.000002447269334       -0.000002404277470       -0.001478831071376
        0.031445496244565        0.000002813515773       -0.000002764096171       -0.001569521868281
        0.033864380571070        0.000003203731464       -0.000003147444720       -0.001659709557945
        0.036283264897575        0.000003589897360       -0.000003526831935       -0.001735953500547
        0.038702149224080        0.000003995600459       -0.000003925391736       -0.001811557282434
        0.041121033550585        0.000004386072643       -0.000004309007841       -0.001871803114816
        0.043539917877090        0.000004791143222       -0.000004706941451       -0.001931268327072
        0.045958802203595        0.000005169215191       -0.000005078372858       -0.001974195834039
        0.048377686530100        0.000005556517160       -0.000005458844755       -0.002016204587028
        0.050796570856605        0.000005904790840       -0.000005800998762       -0.002040752781827
        0.053215455183110        0.000006256588383       -0.000006146584609       -0.002064252386810
        0.055634339509615        0.000006557410480       -0.000006442118217       -0.002069644049257
        0.058053223836120        0.000006855817877       -0.000006735246908       -0.002073871644568
        0.060472108162625        0.000007091741977       -0.000006967020917       -0.002059633707443
        0.062890992489130        0.000007319197577       -0.000007190440312       -0.002044136575218
        0.065309876815635        0.000007473462297       -0.000007341989129       -0.002010115917433
        0.067728761142140        0.000007613216541       -0.000007479245544       -0.001974767047934
        0.070147645468645        0.000007670229346       -0.000007535252503       -0.001921141322118
        0.072566529795150        0.000007706836128       -0.000007571173405       -0.001866149855230
        0.074985414121655        0.000007652651956       -0.000007517940917       -0.001793433053969
        0.077404298448160        0.000007572452116       -0.000007439109837       -0.001719349307426
        0.079823182774665        0.000007395235684       -0.000007265013442       -0.001628391855212
        0.082242067101170        0.000007186821288       -0.000007060225927       -0.001536106735221
        0.084660951427675        0.000006877281950       -0.000006756141316       -0.001428089980915
        0.087079835754180        0.000006531929973       -0.000006416830787       -0.001318828661770
        0.089498720080685        0.000006083718173       -0.000005976523066       -0.001195253737655
        0.091917604407190        0.000005595782526       -0.000005497145705       -0.001070563591147
        0.094336488733695        0.000005005837378       -0.000004917610603       -0.000933234697916
        0.096755373060200        0.000004373088702       -0.000004295978925       -0.000794967549308
        0.099174257386705        0.000003641926861       -0.000003577726346       -0.000645969820139
        0.101593141713210        0.000002865830282       -0.000002815281824       -0.000496258703669
        0.104012026039715        0.000001997767214       -0.000001962553004       -0.000337930893253
        0.106430910366220        0.000001083689210       -0.000001064569107       -0.000179161574842
        0.108849794692725        0.000000086985056       -0.000000085479749       -0.000014063909337
        0.111268679019230       -0.000000955678191        0.000000938812103        0.000151158464057
        0.113687563345735       -0.000002068754634        0.000002032209074        0.000320280854149
        0.116106447672240       -0.000003226533672        0.000003169576779        0.000489169531927
        0.118525331998745       -0.000004439727867        0.000004361313739        0.000659427093602
        0.120944216325250       -0.000005695125889        0.000005594569598        0.000829055397950
        0.123363100651755       -0.000006988310731        0.000006864875352        0.000997457976438
        0.125781984978260       -0.000008319941974        0.000008173011944        0.001164804276356
        0.128200869304765       -0.000009669322843        0.000009498513039        0.001328307633810
        0.130619753631270       -0.000011052144661        0.000010856931055        0.001490302950420
        0.133038637957775       -0.000012430556160        0.000012210943108        0.001645857285810
        0.135457522284280       -0.000013836194059        0.000013591770478        0.001799434807571
        0.137876406610785       -0.000015213486311        0.000014944677480        0.001944034535786
        0.140295290937290       -0.000016610649319        0.000016317177215        0.002086180278130
        0.142714175263795       -0.000017954159844        0.000017636894886        0.002216914292212
        0.145133059590300       -0.000019309141612        0.000018967957171        0.002344718103744
        0.147551943916805       -0.000020584246875        0.000020220474629        0.002458819722158
        0.149970828243310       -0.000021861506019        0.000021475186796        0.002569525819612
        0.152389712569815       -0.000023032244938        0.000022625178968        0.002664421610878
        0.154808596896320       -0.000024195056273        0.000023767465176        0.002755477817928
        0.157227481222825       -0.000025224816241        0.000024778966679        0.002828834498115
        0.159646365549330       -0.000026235982820        0.000025772287399        0.002897939369198
        0.162065249875835       -0.000027088237166        0.000026609417053        0.002947707983885
        0.164484134202340       -0.000027910851447        0.000027417516886        0.002992855013445
        0.166903018528845       -0.000028549935854        0.000028045240544        0.003017311644577
        0.169321902855350       -0.000029148176878        0.000028632931491        0.003036829794449
        0.171740787181855       -0.000029540091009        0.000029017849702        0.003034612073875
        0.174159671508360       -0.000029880043290        0.000029351815790        0.003027201896490
        0.176578555834865       -0.000029993262856        0.000029462961738        0.002997340661270
        0.178997440161370       -0.000030043741685        0.000029512569972        0.002962105353514
        0.181416324487875       -0.000029850025426        0.000029322202409        0.002904050842695
        0.183835208814380       -0.000029583392596        0.000029060304274        0.002840521633711
        0.186254093140885       -0.000029058568128        0.000028544679657        0.002754163701272
        0.188672977467390       -0.000028451521637        0.000027948387008        0.002662319056435
        0.191091861793895       -0.000027576233946        0.000027088494850        0.002548000959478
        0.193510746120400       -0.000026610555129        0.000026139913884        0.002428279170968
        0.195929630446905       -0.000025370961515        0.000024922159404        0.002286804584766
        0.198348514773410       -0.000024034203216        0.000023609066595        0.002140109415455
        0.200767399099915       -0.000022422598962        0.000022025885185        0.001972742426301
        0.203186283426420       -0.000020708698847        0.000020342329558        0.001800441576517
        0.205605167752925       -0.000018724058516        0.000018392718251        0.001608899507990
        0.208024052079430       -0.000016633862440        0.000016339535175        0.001412815782705
        0.210442936405935       -0.000014282282756        0.000014029487321        0.001199254819456
        0.212861820732440       -0.000011823964200        0.000011614710117        0.000981649984862
        0.215280705058945       -0.000009118995741        0.000008957540751        0.000748643668577
        0.217699589385450       -0.000006308358741        0.000006196697779        0.000512195100222
        0.220118473711955       -0.000003271215231        0.000003213248730        0.000262705883488
        0.222537358038460       -0.000000131869903        0.000000129535323        0.000010476221342
        0.224956242364965        0.000003208494248       -0.000003151749097       -0.000252179625091
        0.227375126691470        0.000006645092560       -0.000006527432630       -0.000516779487774
        0.229794011017975        0.000010252043806       -0.000010070566489       -0.000788973212030
        0.232212895344480        0.000013946698563       -0.000013699717399       -0.001062227371191
        0.234631779670985        0.000017776129930       -0.000017461375480       -0.001340064817166
        0.237050663997490        0.000021682155067       -0.000021298135999       -0.001618001294072
        0.239469548323995        0.000025682838669       -0.000025228000187       -0.001897375117862
        0.241888432650500        0.000029746459867       -0.000029219551713       -0.002175819855201
        0.244307316977005        0.000033860546350       -0.000033260801501       -0.002452466192660
        0.246726201303510        0.000038021451240       -0.000037347904871       -0.002727101389283
        0.249145085630015        0.000042185113659       -0.000041437849543       -0.002996660207495
        0.251563969956520        0.000046377147607       -0.000045555528113       -0.003263086192651
        0.253982854283025        0.000050521364572       -0.000049626375536       -0.003521164489758
        0.256401738609530        0.000054673365986       -0.000053704735134       -0.003774964270929
        0.258820622936035        0.000058724836269       -0.000057684489535       -0.004017201232158
        0.261239507262540        0.000062761602675       -0.000061649666741       -0.004254006796031
        0.263658391589045        0.000066643780876       -0.000065463145299       -0.004476139969786
        0.266077275915550        0.000070487154378       -0.000069238372935       -0.004691699374556
        0.268496160242055        0.000074121394750       -0.000072808328599       -0.004889630901872
        0.270915044568560        0.000077691453002       -0.000076315104876       -0.005079875171546
        0.273333928895065        0.000080998246181       -0.000079563440505       -0.005249737085726
        0.275752813221570        0.000084214582652       -0.000082722785974       -0.005410845904147
        0.278171697548075        0.000087114867890       -0.000085571842775       -0.005549063515287
        0.280590581874580        0.000089897943060       -0.000088305627126       -0.005677528719324
        0.283009466201085        0.000092314476630       -0.000090679528469       -0.005780881110957
        0.285428350527590        0.000094587019887       -0.000092911847364       -0.005873566999070
        0.287847234854095        0.000096445778657       -0.000094737877401       -0.005939243691186
        0.290266119180600        0.000098134219066       -0.000096396457926       -0.005993443195050
        0.292685003507105        0.000099365816919       -0.000097606453094       -0.006019096069136
        0.295103887833610        0.000100401719754       -0.000098624065150       -0.006032581882061
        0.297522772160115        0.000100942813486       -0.000099155795612       -0.006016371518935
        0.299941656486620        0.000101264298511       -0.000099471645626       -0.005987441334792
        0.302360540813125        0.000101058959218       -0.000099270163028       -0.005928076984418
        0.304779425139630        0.000100612076146       -0.000098831245801       -0.005855592073953
        0.307198309466135        0.000099613101813       -0.000097850173447       -0.005752364556994
        0.309617193792640        0.000098353138237       -0.000096612557787       -0.005635780993935
        0.312036078119145        0.000096523283402       -0.000094815299412       -0.005488587926721
        0.314454962445650        0.000094415980744       -0.000092745323448       -0.005327979872658
        0.316873846772155        0.000091729079610       -0.000090106167313       -0.005137342709134
        0.319292731098660        0.000088751733326       -0.000087181520028       -0.004933417272662
        0.321711615425165        0.000085193693656       -0.000083686615951       -0.004700489767413
        0.324130499751670        0.000081336115001       -0.000079897282558       -0.004454593067886
        0.326549384078175        0.000076905761471       -0.000075545470848       -0.004181160882015
        0.328968268404680        0.000072171079643       -0.000070894521120       -0.003895275069953
        0.331387152731185        0.000066880827032       -0.000065697994074       -0.003583746364738
        0.333806037057690        0.000061286112410       -0.000060202194611       -0.003260477477729
        0.336224921384195        0.000055162451141       -0.000054186973362       -0.002913864467922
        0.338643805710700        0.000048739142549       -0.000047877207041       -0.002556421130986
        0.341062690037205        0.000041822921520       -0.000041083418951       -0.002178312698550
        0.343481574363710        0.000034617043115       -0.000034004897397       -0.001790475809536
        0.345900458690215        0.000026963537509       -0.000026486841961       -0.001385001407621
        0.348319343016720        0.000019035693742       -0.000018699099782       -0.000971085079393
        0.350738227343225        0.000010714448581       -0.000010525094033       -0.000542870283720
        0.353157111669730        0.000002139588899       -0.000002101756711       -0.000107674443739
        0.355575995996235       -0.000006765967667        0.000006646245651        0.000338211367697
        0.357994880322740       -0.000015899019314        0.000015617924937        0.000789456195125
        0.360413764649245       -0.000025292195495        0.000024844943042        0.001247559434755
        0.362832648975750       -0.000034881447705        0.000034264778855        0.001709254519671
        0.365251533302255       -0.000044653139262        0.000043863641585        0.002173803544924
        0.367670417628760       -0.000054584374441        0.000053619441494        0.002640050761655
        0.370089301955265       -0.000064614142830        0.000063471847040        0.003105027778424
        0.372508186281770       -0.000074762086545        0.000073440560585        0.003569703978277
        0.374927070608275       -0.000084919455546        0.000083418350210        0.004028921788294
        0.377345954934780       -0.000095149164081        0.000093467431762        0.004485757788442
        0.379764839261285       -0.000105295122772        0.000103434065784        0.004932940394750
        0.382183723587790       -0.000115463575282        0.000113423037879        0.005375603559205
        0.384602607914295       -0.000125452271631        0.000123235258407        0.005804469577424
        0.387021492240800       -0.000135410149665        0.000133017458667        0.006226648901402
        0.389440376567305       -0.000145090755586        0.000142527120305        0.006630996670259
        0.391859260893810       -0.000154684389337        0.000151951611693        0.007026489229519
        0.394278145220315       -0.000163903114806        0.000161007658302        0.007400282476133
        0.396697029546820       -0.000172976572207        0.000169921279405        0.007763080068723
        0.399115913873325       -0.000181578803093        0.000178371842158        0.008100532961199
        0.401534798199830       -0.000189976094994        0.000186621371338        0.008424907750801
        0.403953682526335       -0.000197808626567        0.000194315960714        0.008720568163828
        0.406372566852840       -0.000205375998622        0.000201750365470        0.009001156132151
        0.408791451179345       -0.000212289334450        0.000208542127611        0.009249985960678
        0.411210335505850       -0.000218877614138        0.000215014868353        0.009481866991122
        0.413629219832355       -0.000224728298154        0.000220762874349        0.009679318372759
        0.416048104158860       -0.000230195263606        0.000226134230010        0.009858091818874
        0.418466988485365       -0.000234848211696        0.000230705765236        0.010000178167201
        0.420885872811870       -0.000239060947676        0.000234845146861        0.010122032806881
        0.423304757138375       -0.000242391744162        0.000238117966481        0.010205393614847
        0.425723641464880       -0.000245228949720        0.000240906184056        0.010267170954265
        0.428142525791385       -0.000247126073616        0.000242770700291        0.010289129398724
        0.430561410117890       -0.000248480285654        0.000244102147730        0.010288379367887
        0.432980294444395       -0.000248847231629        0.000244463514450        0.010246991832047
        0.435399178770900       -0.000248626928824        0.000244248237808        0.010182020005591
        0.437818063097405       -0.000247384188343        0.000243028298492        0.010076116734772
        0.440236947423910       -0.000245515740635        0.000241193913125        0.009946022316116
        0.442655831750415       -0.000242602609869        0.000238332979224        0.009775238532349
        0.445074716076920       -0.000239032040043        0.000234826402879        0.009579942455109
        0.447493600403425       -0.000234408222703        0.000230284831143        0.009344739376496
        0.449912484729930       -0.000229102748406        0.000225073801661        0.009085002002769
        0.452331369056435       -0.000222749723823        0.000218833341031        0.008786677342427
        0.454750253382940       -0.000215699050709        0.000211907689635        0.008464105371429
        0.457169137709445       -0.000207621180056        0.000203972570840        0.008104793026696
        0.459588022035950       -0.000198838519584        0.000195345224758        0.007721835367618
        0.462006906362455       -0.000189063866228        0.000185742968771        0.007304494151198
        0.464425790688960       -0.000178586654931        0.000175450660179        0.006864426659101
        0.466844675015465       -0.000167167498368        0.000164232585151        0.006392818068044
        0.469263559341970       -0.000155057799118        0.000152336247109        0.005899717189246
        0.471682443668475       -0.000142070825860        0.000139577657255        0.005378372353282
