#           time (fs)    |     mu_x (e.angstrom)   |     mu_y (e.angstrom)   |     mu_z (e.angstrom)   |
        0.000000000000000       -0.000000000000000       -0.000000000000000        0.000000000000000
        0.002418884326505       -0.000000019549012        0.000000000093343        0.000069177716266
        0.004837768653010       -0.000000078215515        0.000000000375763        0.000138378026143
        0.007256652979515       -0.000000175053670        0.000000000839271        0.000206446413120
        0.009675537306020       -0.000000310415897        0.000000001491301        0.000274536018613
        0.012094421632525       -0.000000481151490        0.000000002308683        0.000340393540767
        0.014513305959030       -0.000000689190178        0.000000003311022        0.000406269619559
        0.016932190285535       -0.000000928004111        0.000000004454335        0.000468848891406
        0.019351074612040       -0.000001202289033        0.000000005776113        0.000531442849844
        0.021769958938545       -0.000001501073154        0.000000007206430        0.000589728006778
        0.024188843265050       -0.000001832911601        0.000000008805919        0.000648022886179
        0.026607727591555       -0.000002181463754        0.000000010474270        0.000701066172257
        0.029026611918060       -0.000002560105410        0.000000012299875        0.000754113269516
        0.031445496244565       -0.000002946377174        0.000000014148433        0.000801050569938
        0.033864380571070       -0.000003359271166        0.000000016139920        0.000847984999359
        0.036283264897575       -0.000003769663090        0.000000018103417        0.000888050061303
        0.038702149224080       -0.000004202761889        0.000000020193370        0.000928105000631
        0.041121033550585       -0.000004622459950        0.000000022200705        0.000960642106307
        0.043539917877090       -0.000005060563681        0.000000024316170        0.000993161490182
        0.045958802203595       -0.000005473909755        0.000000026292179        0.001017636370123
        0.048377686530100       -0.000005901043558        0.000000028356467        0.001042085818435
        0.050796570856605       -0.000006291931873        0.000000030223819        0.001058094620751
        0.053215455183110       -0.000006691748171        0.000000032158425        0.001074070417248
        0.055634339509615       -0.000007044039075        0.000000033839595        0.001081346579455
        0.058053223836120       -0.000007400235962        0.000000035566202        0.001088582546893
        0.060472108162625       -0.000007698177851        0.000000036985488        0.001087001450492
        0.062890992489130       -0.000007994924356        0.000000038427993        0.001085373602353
        0.065309876815635       -0.000008223574350        0.000000039513532        0.001074954925955
        0.067728761142140       -0.000008445933082        0.000000040600074        0.001064483810515
        0.070147645468645       -0.000008591566905        0.000000041285801        0.001045391534584
        0.072566529795150       -0.000008725904508        0.000000041950730        0.001026242224521
        0.074985414121655       -0.000008776406179        0.000000042178256        0.000998782278978
        0.077404298448160       -0.000008810782147        0.000000042363999        0.000971261997996
        0.079823182774665       -0.000008756004363        0.000000042084341        0.000935877582447
        0.082242067101170       -0.000008680529113        0.000000041743133        0.000900430999079
        0.084660951427675       -0.000008512615709        0.000000040918278        0.000857695643688
        0.087079835754180       -0.000008319769321        0.000000040013703        0.000814897900804
        0.089498720080685       -0.000008033431904        0.000000038617950        0.000765506373119
        0.091917604407190       -0.000007718335649        0.000000037126264        0.000716053959070
        0.094336488733695       -0.000007311077320        0.000000035147317        0.000660811157924
        0.096755373060200       -0.000006871710995        0.000000033058513        0.000605510761179
        0.099174257386705       -0.000006343991138        0.000000030498295        0.000545318772397
        0.101593141713210       -0.000005781350244        0.000000027816879        0.000485074295210
        0.104012026039715       -0.000005136685495        0.000000024692043        0.000420917814821
        0.106430910366220       -0.000004454873513        0.000000021437503        0.000356715752541
        0.108849794692725       -0.000003699871306        0.000000017779613        0.000289646110889
        0.111268679019230       -0.000002906123598        0.000000013986558        0.000222539531243
        0.113687563345735       -0.000002050446078        0.000000009841939        0.000153657575428
        0.116106447672240       -0.000001155083349        0.000000005559891        0.000084748956201
        0.118525331998745       -0.000000211340856        0.000000000989132        0.000015187068164
        0.120944216325250        0.000000772348434       -0.000000003718022       -0.000054389728411
        0.123363100651755        0.000001788773593       -0.000000008640903       -0.000123486185407
        0.125781984978260        0.000002844720980       -0.000000013695804       -0.000192584507790
        0.128200869304765        0.000003915918286       -0.000000018884527       -0.000260076010854
        0.130619753631270        0.000005025530819       -0.000000024197572       -0.000327555278487
        0.133038637957775        0.000006131369143       -0.000000029555079       -0.000392326925809
        0.135457522284280        0.000007273848809       -0.000000035025963       -0.000457071444437
        0.137876406610785        0.000008392342778       -0.000000040446188       -0.000518051385215
        0.140295290937290        0.000009545064525       -0.000000045965735       -0.000578988806599
        0.142714175263795        0.000010652793211       -0.000000051335635       -0.000635166014816
        0.145133059590300        0.000011791734935       -0.000000056787886       -0.000691285134708
        0.147551943916805        0.000012864305200       -0.000000061989697       -0.000741726230971
        0.149970828243310        0.000013964521827       -0.000000067254219       -0.000792093828860
        0.152389712569815        0.000014977067554       -0.000000072167882       -0.000835958668955
        0.154808596896320        0.000016013200251       -0.000000077122243       -0.000879735107705
        0.157227481222825        0.000016940907750       -0.000000081627964       -0.000916290875730
        0.159646365549330        0.000017887718368       -0.000000086150339       -0.000952744198565
        0.162065249875835        0.000018706367494       -0.000000090131225       -0.000981377766163
        0.164484134202340        0.000019539287615       -0.000000094103069       -0.001009896052214
        0.166903018528845        0.000020225797563       -0.000000097447781       -0.001030124393121
        0.169321902855350        0.000020921480966       -0.000000100756512       -0.001050226160659
        0.171740787181855        0.000021454449383       -0.000000103361887       -0.001061704641145
        0.174159671508360        0.000021991316429       -0.000000105903530       -0.001073047119088
        0.176578555834865        0.000022351540335       -0.000000107677103       -0.001075575519313
        0.178997440161370        0.000022710302670       -0.000000109358833       -0.001077960642251
        0.181416324487875        0.000022881269834       -0.000000110221215       -0.001071486800672
        0.183835208814380        0.000023045423948       -0.000000110963736       -0.001064864819869
        0.186254093140885        0.000023013763657       -0.000000110850783       -0.001049485831789
        0.188672977467390        0.000022970042212       -0.000000110590501       -0.001033956473788
        0.191091861793895        0.000022725925006       -0.000000109455233       -0.001009917415565
        0.193510746120400        0.000022464695449       -0.000000108146159       -0.000985728560550
        0.195929630446905        0.000022002172140       -0.000000105960372       -0.000953418751978
        0.198348514773410        0.000021517772941       -0.000000103575726       -0.000920962645213
        0.200767399099915        0.000020835044292       -0.000000100331266       -0.000880909503625
        0.203186283426420        0.000020126050204       -0.000000096864721       -0.000840716554433
        0.205605167752925        0.000019225659822       -0.000000092574381       -0.000793577134407
        0.208024052079430        0.000018295068777       -0.000000088040932       -0.000746307397580
        0.210442936405935        0.000017184013165       -0.000000082738949       -0.000692857749086
        0.212861820732440        0.000016039348855       -0.000000077175369       -0.000639290222689
        0.215280705058945        0.000014729100111       -0.000000070917491       -0.000580412737429
        0.217699589385450        0.000013382425835       -0.000000064382360       -0.000521432647922
        0.220118473711955        0.000011888864128       -0.000000057245490       -0.000458101597898
        0.222537358038460        0.000010356705201       -0.000000049818786       -0.000394685877841
        0.224956242364965        0.000008699959919       -0.000000041900178       -0.000327951381205
        0.227375126691470        0.000007003133691       -0.000000033682430       -0.000261152575833
        0.229794011017975        0.000005207333948       -0.000000025098465       -0.000192123252307
        0.232212895344480        0.000003370688320       -0.000000016209465       -0.000123052118514
        0.234631779670985        0.000001463625372       -0.000000007094006       -0.000052876719644
        0.237050663997490       -0.000000484311453        0.000000002328892        0.000017316196147
        0.239469548323995       -0.000002471605543        0.000000011826541        0.000087467878314
        0.241888432650500       -0.000004499059494        0.000000021630518        0.000157611378652
        0.244307316977005       -0.000006532810794        0.000000031348014        0.000226568007584
        0.246726201303510       -0.000008605274178        0.000000041367250        0.000295489780890
        0.249145085630015       -0.000010649535598        0.000000051131938        0.000362098051324
        0.251563969956520       -0.000012730349101        0.000000061190402        0.000428644281259
        0.253982854283025       -0.000014747629465        0.000000070822329        0.000491788247098
        0.256401738609530       -0.000016798624249        0.000000080736847        0.000554842965937
        0.258820622936035       -0.000018750566901        0.000000090051999        0.000613462795528
        0.261239507262540       -0.000020732755717        0.000000099635557        0.000671966656071
        0.263658391589045       -0.000022580854578        0.000000108449276        0.000725076498420
        0.266077275915550       -0.000024455159601        0.000000117514486        0.000778044647422
        0.268496160242055       -0.000026161499550        0.000000125645000        0.000824749306561
        0.270915044568560       -0.000027889503589        0.000000134007682        0.000871288056529
        0.273333928895065       -0.000029417511281        0.000000141279680        0.000910798190071
        0.275752813221570       -0.000030962218242        0.000000148762486        0.000950120205249
        0.278171697548075       -0.000032277408891        0.000000155010680        0.000981765786866
        0.280590581874580       -0.000033603998871        0.000000161446694        0.001013203523142
        0.283009466201085       -0.000034674704273        0.000000166519288        0.001036445336869
        0.285428350527590       -0.000035751268370        0.000000171755535        0.001059462503693
        0.287847234854095       -0.000036549331467        0.000000175517544        0.001073901470188
        0.290266119180600       -0.000037347571468        0.000000179418328        0.001088102315018
        0.292685003507105       -0.000037848993016        0.000000181754668        0.001093486485645
        0.295103887833610       -0.000038344871428        0.000000184204689        0.001098622737360
        0.297522772160115       -0.000038530394953        0.000000185022980        0.001094851830641
        0.299941656486620       -0.000038704721475        0.000000185930143        0.001090827177237
        0.302360540813125       -0.000038560343554        0.000000185163159        0.001077954573164
        0.304779425139630       -0.000038399284970        0.000000184461025        0.001064826590157
        0.307198309466135       -0.000037916679011        0.000000182068739        0.001043058740451
        0.309617193792640       -0.000037412180684        0.000000179718560        0.001021038229180
        0.312036078119145       -0.000036589023791        0.000000175689720        0.000990731485060
        0.314454962445650       -0.000035739132344        0.000000171681998        0.000960179223683
        0.316873846772155       -0.000034579326454        0.000000166035207        0.000921834126343
        0.319292731098660       -0.000033388404911        0.000000160390749        0.000883255080095
        0.321711615425165       -0.000031902185262        0.000000153175003        0.000837508202184
        0.324130499751670       -0.000030381013758        0.000000145945419        0.000791543282637
        0.326549384078175       -0.000028584939715        0.000000137240082        0.000739156750789
        0.328968268404680       -0.000026750696972        0.000000128507713        0.000686572255702
        0.331387152731185       -0.000024667522428        0.000000118421912        0.000628421123955
        0.333806037057690       -0.000022543645329        0.000000108299174        0.000570096029103
        0.336224921384195       -0.000020202068108        0.000000096970609        0.000507153710051
        0.338643805710700       -0.000017817989018        0.000000085598744        0.000444065021486
        0.341062690037205       -0.000015252281063        0.000000073191923        0.000377387015762
        0.343481574363710       -0.000012643044850        0.000000060739169        0.000310593424613
        0.345900458690215       -0.000009892567273        0.000000047443086        0.000241299619054
        0.348319343016720       -0.000007098332369        0.000000034102286        0.000171923730867
        0.350738227343225       -0.000004206941746        0.000000020127571        0.000101179561060
        0.353157111669730       -0.000001272371869        0.000000006113251        0.000030388996592
        0.355575995996235        0.000001712273593       -0.000000008311162       -0.000040614210228
        0.357994880322740        0.000004738718163       -0.000000022766201       -0.000111626525258
        0.360413764649245        0.000007765941864       -0.000000037396843       -0.000181691695719
        0.362832648975750        0.000010832802468       -0.000000052045365       -0.000251727719579
        0.365251533302255        0.000013849769380       -0.000000066628372       -0.000319672327402
        0.367670417628760        0.000016903463650       -0.000000081212914       -0.000387549228261
        0.370089301955265        0.000019856102577       -0.000000095488463       -0.000452225390728
        0.372508186281770        0.000022841860904       -0.000000109745845       -0.000516795664192
        0.374927070608275        0.000025675833092       -0.000000123452819       -0.000577109699426
        0.377345954934780        0.000028538680661       -0.000000137118869       -0.000637280734644
        0.379764839261285        0.000031200377574       -0.000000149999657       -0.000692211845221
        0.382183723587790        0.000033886144537       -0.000000162814070       -0.000746964604618
        0.384602607914295        0.000036323696669       -0.000000174619418       -0.000795582366666
        0.387021492240800        0.000038780038075       -0.000000186330662       -0.000843988858308
        0.389440376567305        0.000040944316060       -0.000000196824487       -0.000885469214463
        0.391859260893810        0.000043121722587       -0.000000207194658       -0.000926708455426
        0.394278145220315        0.000044967311583       -0.000000216158727       -0.000960347934431
        0.396697029546820        0.000046820091856       -0.000000224968267       -0.000993720128262
        0.399115913873325        0.000048306220282       -0.000000232206657       -0.001018948043264
        0.401534798199830        0.000049793435677       -0.000000239258842       -0.001043886724137
        0.403953682526335        0.000050884839802       -0.000000244602088       -0.001060275135364
        0.406372566852840        0.000051971173120       -0.000000249727191       -0.001076357065361
        0.408791451179345        0.000052638879826       -0.000000253036038       -0.001083628330324
        0.411210335505850        0.000053295420049       -0.000000256095096       -0.001090580973978
        0.413629219832355        0.000053517431243       -0.000000257263780       -0.001088612748930
        0.416048104158860        0.000053722357781       -0.000000258151870       -0.001086319189986
        0.418466988485365        0.000053484221414       -0.000000257110855       -0.001075146789526
        0.420885872811870        0.000053223372802       -0.000000255759822       -0.001063647998199
        0.423304757138375        0.000052518627266       -0.000000252477929       -0.001043464064798
        0.425723641464880        0.000051785941083       -0.000000248858495       -0.001022958468877
        0.428142525791385        0.000050616421866       -0.000000243344376       -0.000994109950026
        0.430561410117890        0.000049414234824       -0.000000237467582       -0.000964950309238
        0.432980294444395        0.000047790234628       -0.000000229770491       -0.000927932786049
        0.435399178770900        0.000046129434141       -0.000000221688431       -0.000890620415345
        0.437818063097405        0.000044069710256       -0.000000211898263       -0.000846069872033
        0.440236947423910        0.000041969731412       -0.000000201704077       -0.000801246305132
        0.442655831750415        0.000039501356852       -0.000000189950671       -0.000749928473020
        0.445074716076920        0.000036990021479       -0.000000177777788       -0.000698364701818
        0.447493600403425        0.000034148079255       -0.000000164229469       -0.000641162153630
        0.449912484729930        0.000031261276657       -0.000000150250086       -0.000583745621198
        0.452331369056435        0.000028088399480       -0.000000135111475       -0.000521642830674
        0.454750253382940        0.000024869611382       -0.000000119534300       -0.000459362394813
        0.457169137709445        0.000021415372022       -0.000000103043403       -0.000393429012375
        0.459588022035950        0.000017915047218       -0.000000086110668       -0.000327358132357
        0.462006906362455        0.000014235207668       -0.000000068535292       -0.000258730759132
        0.464425790688960        0.000010509994793       -0.000000050519086       -0.000190009189692
        0.466844675015465        0.000006665625169       -0.000000032152619       -0.000119871958980
        0.469263559341970        0.000002777474838       -0.000000013350596       -0.000049686262301
        0.471682443668475       -0.000001166044387        0.000000005492767        0.000020749440813
