#           time (fs)    |     mu_x (e.angstrom)   |     mu_y (e.angstrom)   |     mu_z (e.angstrom)   |
        0.000000000000000       -0.000000000000000       -0.000000000000000        0.000000000000000
        0.002418884326505        0.000000002251946        0.000000002740640        0.000055383822816
        0.004837768653010        0.000000024330841        0.000000029610538        0.000299187584187
        0.007256652979515        0.000000066128503        0.000000080478210        0.000542101962731
        0.009675537306020        0.000000157770783        0.000000192006408        0.000970010091165
        0.012094421632525        0.000000283699940        0.000000345261807        0.001395390195169
        0.014513305959030        0.000000487608354        0.000000593417355        0.001998585280900
        0.016932190285535        0.000000739185181        0.000000899585421        0.002596896149594
        0.019351074612040        0.000001093754606        0.000001331094593        0.003362215849354
        0.021769958938545        0.000001507677616        0.000001834837013        0.004119628000175
        0.024188843265050        0.000002045328500        0.000002489154949        0.005029805498918
        0.026607727591555        0.000002651855663        0.000003227294895        0.005928452292064
        0.029026611918060        0.000003397524092        0.000004134767746        0.006962435290581
        0.031445496244565        0.000004219019131        0.000005134520425        0.007980747549138
        0.033864380571070        0.000005188844899        0.000006314788415        0.009114090225048
        0.036283264897575        0.000006238532834        0.000007592246224        0.010227202255116
        0.038702149224080        0.000007438782337        0.000009052932474        0.011432523366739
        0.041121033550585        0.000008719749527        0.000010611847729        0.012612743276558
        0.043539917877090        0.000010146004878        0.000012347571142        0.013860242427140
        0.045958802203595        0.000011650473211        0.000014178472553        0.015077578529027
        0.048377686530100        0.000013287112922        0.000016170215681        0.016335601600728
        0.050796570856605        0.000014996011561        0.000018249887152        0.017558335711345
        0.053215455183110        0.000016816001511        0.000020464741932        0.018793979628323
        0.055634339509615        0.000018698852914        0.000022756084101        0.019989277274254
        0.058053223836120        0.000020663859342        0.000025147389806        0.021169023572513
        0.060472108162625        0.000022678989201        0.000027599676132        0.022303570468754
        0.062890992489130        0.000024739818239        0.000030107555061        0.023393936644371
        0.065309876815635        0.000026834891726        0.000032657085374        0.024434590349510
        0.067728761142140        0.000028932252633        0.000035209372827        0.025402787630468
        0.070147645468645        0.000031045131999        0.000037780518287        0.026317232997834
        0.072566529795150        0.000033110713925        0.000040294074382        0.027131819040215
        0.074985414121655        0.000035170625202        0.000042800698836        0.027889215980895
        0.077404298448160        0.000037128470131        0.000045183080935        0.028520731027589
        0.079823182774665        0.000039057459527        0.000047530314938        0.029092343179156
        0.082242067101170        0.000040825607059        0.000049681780915        0.029513918437378
        0.084660951427675        0.000042540260769        0.000051768116255        0.029873711590176
        0.087079835754180        0.000044032633823        0.000053583920784        0.030061638980357
        0.089498720080685        0.000045446028470        0.000055303585418        0.030186838548855
        0.091917604407190        0.000046574522834        0.000056676523979        0.030121091547992
        0.094336488733695        0.000047598367754        0.000057922090003        0.029992688984113
        0.096755373060200        0.000048275102856        0.000058745238554        0.029657385026022
        0.099174257386705        0.000048822030057        0.000059410409273        0.029260583848833
        0.101593141713210        0.000048961713497        0.000059580001681        0.028644379644629
        0.104012026039715        0.000048947666486        0.000059562518295        0.027968972698529
        0.106430910366220        0.000048470020824        0.000058980898794        0.027065384893242
        0.108849794692725        0.000047816689736        0.000058185502666        0.026106055534387
        0.111268679019230        0.000046648887021        0.000056764086970        0.024913700307406
        0.113687563345735        0.000045286134749        0.000055105470221        0.023670241441912
        0.116106447672240        0.000043365182275        0.000052767646623        0.022192987974058
        0.118525331998745        0.000041233404649        0.000050173321870        0.020670434214658
        0.120944216325250        0.000038508424653        0.000046857222766        0.018917468363879
        0.123363100651755        0.000035560787347        0.000043270242425        0.017126138013609
        0.125781984978260        0.000031995133879        0.000038931317392        0.015111934041969
        0.128200869304765        0.000028199629608        0.000034312774135        0.013067379130373
        0.130619753631270        0.000023772787573        0.000028926097934        0.010811578881341
        0.133038637957775        0.000019114059400        0.000023257340624        0.008534443043743
        0.135457522284280        0.000013823273993        0.000016819593368        0.006061643552640
        0.137876406610785        0.000008304154132        0.000010104097180        0.003577429127328
        0.140295290937290        0.000002165743294        0.000002635159318        0.000916881229070
        0.142714175263795       -0.000004191538324       -0.000005100005370       -0.001744371479728
        0.145133059590300       -0.000011141230065       -0.000013555893725       -0.004559149433361
        0.147551943916805       -0.000018294207135       -0.000022259041777       -0.007363266247648
        0.149970828243310       -0.000025998248288       -0.000031632599441       -0.010294953964395
        0.152389712569815       -0.000033883781952       -0.000041226900259       -0.013204108341250
        0.154808596896320       -0.000042264514252       -0.000051423634441       -0.016212121469428
        0.157227481222825       -0.000050798783946       -0.000061807100036       -0.019185386128494
        0.159646365549330       -0.000059758121727       -0.000072707669389       -0.022226478180305
        0.162065249875835       -0.000068837058960       -0.000083753680686       -0.025220438317356
        0.164484134202340       -0.000078257237294       -0.000095214803814       -0.028249357240560
        0.166903018528845       -0.000087757409164       -0.000106773183708       -0.031218775707003
        0.169321902855350       -0.000097502181063       -0.000118629093745       -0.034188964740706
        0.171740787181855       -0.000107282120963       -0.000130527724106       -0.037087488645883
        0.174159671508360       -0.000117198394567       -0.000142592158665       -0.039951820302204
        0.176578555834865       -0.000127100368268       -0.000154639127276       -0.042732717750844
        0.178997440161370       -0.000137020265739       -0.000166707831868       -0.045444249157305
        0.181416324487875       -0.000146872451920       -0.000178694084178       -0.048061164277869
        0.183835208814380       -0.000156615762910       -0.000190547796434       -0.050573901702606
        0.186254093140885       -0.000166234818574       -0.000202250256430       -0.052981615759437
        0.188672977467390       -0.000175611812833       -0.000213658128264       -0.055251275925783
        0.191091861793895       -0.000184805785883       -0.000224843242821       -0.057406462141341
        0.193510746120400       -0.000193620341906       -0.000235566648249       -0.059391217920216
        0.195929630446905       -0.000202191885811       -0.000245994300179       -0.061253177662707
        0.198348514773410       -0.000210244885546       -0.000255790968009       -0.062914375907983
        0.200767399099915       -0.000217994724327       -0.000265218694781       -0.064445744121570
        0.203186283426420       -0.000225087657963       -0.000273847097921       -0.065748583780410
        0.205605167752925       -0.000231818243990       -0.000282034545881       -0.066915991945055
        0.208024052079430       -0.000237756963680       -0.000289258472601       -0.067830151125749
        0.210442936405935       -0.000243276265874       -0.000295972010417       -0.068604836624998
        0.212861820732440       -0.000247874823110       -0.000301565237717       -0.069105038030852
        0.215280705058945       -0.000252000179227       -0.000306582647878       -0.069463389570557
        0.217699589385450       -0.000255084677357       -0.000310333633105       -0.069529894600460
        0.220118473711955       -0.000257646641030       -0.000313448796638       -0.069453924249716
        0.222537358038460       -0.000259059032229       -0.000315165300800       -0.069072947112877
        0.224956242364965       -0.000259905143557       -0.000316192787964       -0.068550680619103
        0.227375126691470       -0.000259506898413       -0.000315706342805       -0.067714715000178
        0.229794011017975       -0.000258505305944       -0.000314485821509       -0.066740493249873
        0.232212895344480       -0.000256180883764       -0.000311655952408       -0.065448545376352
        0.234631779670985       -0.000253223745980       -0.000308056326462       -0.064023231216106
        0.237050663997490       -0.000248883795025       -0.000302774444694       -0.062280954605164
        0.239469548323995       -0.000243890390832       -0.000296697635877       -0.060412040686101
        0.241888432650500       -0.000237474609967       -0.000288890516732       -0.058231769363508
        0.244307316977005       -0.000230394090342       -0.000280274808048       -0.055933384206012
        0.246726201303510       -0.000221873687160       -0.000269907575840       -0.053334062773109
        0.249145085630015       -0.000212687404026       -0.000258730438364       -0.050626873844584
        0.251563969956520       -0.000202067089363       -0.000245808985492       -0.047633884396511
        0.253982854283025       -0.000190790443071       -0.000232089317812       -0.044544898627930
        0.256401738609530       -0.000178109908016       -0.000216662092775       -0.041189786170844
        0.258820622936035       -0.000164793661408       -0.000200461810298       -0.037752049981071
        0.261239507262540       -0.000150128490442       -0.000182620918864       -0.034072149630517
        0.263658391589045       -0.000134859505445       -0.000164045840077       -0.030324352152727
        0.266077275915550       -0.000118321488118       -0.000143927414632       -0.026362322991111
        0.268496160242055       -0.000101222850047       -0.000123127402709       -0.022348307774504
        0.270915044568560       -0.000082959663587       -0.000100911206966       -0.018151579774402
        0.273333928895065       -0.000064190168672       -0.000078079537729       -0.013919771738632
        0.275752813221570       -0.000044384414912       -0.000053987787350       -0.009539913592999
        0.278171697548075       -0.000024137407942       -0.000029359728331       -0.005142669415132
        0.280590581874580       -0.000003004999773       -0.000003655122263       -0.000634686429404
        0.283009466201085        0.000018493439188        0.000022494277822        0.003872422181226
        0.285428350527590        0.000040705534228        0.000049511305538        0.008450849809957
        0.287847234854095        0.000063199042511        0.000076870202497        0.013009809367605
        0.290266119180600        0.000086215681203        0.000104864985511        0.017599136553274
        0.292685003507105        0.000109420681304        0.000133088470855        0.022150310043677
        0.295103887833610        0.000132942013315        0.000161696327770        0.026689972940134
        0.297522772160115        0.000156551358877        0.000190410860632        0.031172950749275
        0.299941656486620        0.000180256839677        0.000219241971950        0.035602236219731
        0.302360540813125        0.000203943990664        0.000248050452440        0.039956706856646
        0.304779425139630        0.000227496881929        0.000276695328487        0.044215632072268
        0.307198309466135        0.000250920548671        0.000305182739681        0.048382259428728
        0.309617193792640        0.000273972838718        0.000333218198109        0.052412448169106
        0.312036078119145        0.000296782024259        0.000360957731549        0.056333741898782
        0.314454962445650        0.000318979691702        0.000387953291759        0.060079284123322
        0.316873846772155        0.000340819053046        0.000414512860648        0.063700449774177
        0.319292731098660        0.000361807589063        0.000440037452996        0.067108731240755
        0.321711615425165        0.000382323030582        0.000464986488394        0.070378487035003
        0.324130499751670        0.000401753128986        0.000488615368505        0.073400976156184
        0.326549384078175        0.000420597535665        0.000511531786906        0.076272323777305
        0.328968268404680        0.000438130855626        0.000532853539961        0.078865303517874
        0.331387152731185        0.000454969870021        0.000553330765875        0.081296240926020
        0.333806037057690        0.000470284773722        0.000571954282441        0.083421474348733
        0.336224921384195        0.000484802518504        0.000589608206941        0.085375639494250
        0.338643805710700        0.000497599685284        0.000605169510806        0.087000958541181
        0.341062690037205        0.000509504333070        0.000619645266536        0.088448193867933
        0.343481574363710        0.000519512152675        0.000631814076001        0.089548002107954
        0.345900458690215        0.000528541246351        0.000642792510708        0.090464830918667
        0.348319343016720        0.000535520896594        0.000651278417839        0.091020512280539
        0.350738227343225        0.000541446326498        0.000658482152101        0.091390519357968
        0.353157111669730        0.000545196444909        0.000663040309391        0.091390746284127
        0.355575995996235        0.000547828993860        0.000666239269634        0.091204856605034
        0.357994880322740        0.000548189858556        0.000666675480271        0.090645792582458
        0.360413764649245        0.000547383231726        0.000665691805336        0.089902443504534
        0.362832648975750        0.000544240373670        0.000661866921590        0.088787836533063
        0.365251533302255        0.000539894637474        0.000656579149839        0.087493040454746
        0.367670417628760        0.000533181814365        0.000648412693940        0.085834205675570
        0.370089301955265        0.000525246176902        0.000638759148050        0.084001501840274
        0.372508186281770        0.000514947648004        0.000626232081024        0.081817193242132
        0.374927070608275        0.000503422522846        0.000612213379075        0.079467489055706
        0.377345954934780        0.000489574574079        0.000595369955375        0.076783661877190
        0.379764839261285        0.000474512879450        0.000577050589459        0.073944965803692
        0.382183723587790        0.000457204558845        0.000555999248582        0.070794432929873
        0.384602607914295        0.000438712215228        0.000533508185826        0.067501482698952
        0.387021492240800        0.000418085250437        0.000508421446461        0.063923469982560
        0.389440376567305        0.000396320851435        0.000481951721977        0.060217261455212
        0.391859260893810        0.000372568733150        0.000453065059337        0.056256868450552
        0.394278145220315        0.000347742376840        0.000422872345985        0.052184092022797
        0.396697029546820        0.000321108604804        0.000390482048830        0.047891666079522
        0.399115913873325        0.000293479885835        0.000356882204763        0.043504058931056
        0.401534798199830        0.000264255387313        0.000321342224892        0.038934491931410
        0.403953682526335        0.000234130563442        0.000284707836398        0.034288115725764
        0.406372566852840        0.000202650307637        0.000246425660101        0.029500073941700
        0.408791451179345        0.000170378668141        0.000207181614067        0.024654528735149
        0.411210335505850        0.000137017513744        0.000166613201740        0.019709627311944
        0.413629219832355        0.000102986991007        0.000125231338966        0.014727213412286
        0.416048104158860        0.000068154817742        0.000082875195709        0.009689147836708
        0.418466988485365        0.000032786897054        0.000039868112891        0.004633988154625
        0.420885872811870       -0.000003076914534       -0.000003741430962       -0.000432364274855
        0.423304757138375       -0.000039332918595       -0.000047827346674       -0.005495228232321
        0.425723641464880       -0.000075765582107       -0.000092127550817       -0.010524723458634
        0.428142525791385       -0.000112438801682       -0.000136719755674       -0.015530248400326
        0.430561410117890       -0.000148960705671       -0.000181127472421       -0.020458393461745
        0.432980294444395       -0.000185565455363       -0.000225635455436       -0.025342450186050
        0.435399178770900       -0.000221687130450       -0.000269555598554       -0.030106310113909
        0.437818063097405       -0.000257729999857       -0.000313379501301       -0.034806584720971
        0.440236947423910       -0.000292959363467       -0.000356213849190       -0.039345664903307
        0.442655831750415       -0.000327946554951       -0.000398753380785       -0.043802531857762
        0.445074716076920       -0.000361796317760       -0.000439909573588       -0.048059622681509
        0.447493600403425       -0.000395241111199       -0.000480573077722       -0.052216976682445
        0.449912484729930       -0.000427236224175       -0.000519473661879       -0.056138947862485
        0.452331369056435       -0.000458666445999       -0.000557687187538       -0.059944982125259
        0.454750253382940       -0.000488351464070       -0.000593778557958       -0.063483514920378
        0.457169137709445       -0.000517316835715       -0.000628994783002       -0.066891434315908
        0.459588022035950       -0.000544263073655       -0.000661755872565       -0.070003680807132
        0.462006906362455       -0.000570342314957       -0.000693462729748       -0.072972339325124
        0.464425790688960       -0.000594154673118       -0.000722413298304       -0.075621499075408
        0.466844675015465       -0.000616962238977       -0.000750142156720       -0.078115952262368
        0.469263559341970       -0.000637285581013       -0.000774850537088       -0.080271757969899
        0.471682443668475       -0.000656477914913       -0.000798183798230       -0.082263722321515
