#     time (fs)  |  E_x (eV/ang)  | E_y (eV/ang) | E_z (eV/ang)
     0.00000000     0.00000000     0.00000000     0.68475496
     0.00241888     0.02148608     0.00000000     0.68441778
     0.00483777     0.04295101     0.00000000     0.68340659
     0.00725665     0.06437363     0.00000000     0.68172237
     0.00967554     0.08573286     0.00000000     0.67936678
     0.01209442     0.10700766     0.00000000     0.67634216
     0.01451331     0.12817708     0.00000000     0.67265146
     0.01693219     0.14922026     0.00000000     0.66829833
     0.01935107     0.17011650     0.00000000     0.66328706
     0.02176996     0.19084520     0.00000000     0.65762258
     0.02418884     0.21138596     0.00000000     0.65131047
     0.02660773     0.23171854     0.00000000     0.64435694
     0.02902661     0.25182292     0.00000000     0.63676885
     0.03144550     0.27167931     0.00000000     0.62855366
     0.03386438     0.29126815     0.00000000     0.61971947
     0.03628326     0.31057014     0.00000000     0.61027497
     0.03870215     0.32956628     0.00000000     0.60022947
     0.04112103     0.34823786     0.00000000     0.58959286
     0.04353992     0.36656650     0.00000000     0.57837562
     0.04595880     0.38453413     0.00000000     0.56658878
     0.04837769     0.40212308     0.00000000     0.55424397
     0.05079657     0.41931601     0.00000000     0.54135333
     0.05321546     0.43609600     0.00000000     0.52792957
     0.05563434     0.45244652     0.00000000     0.51398589
     0.05805322     0.46835146     0.00000000     0.49953604
     0.06047211     0.48379517     0.00000000     0.48459425
     0.06289099     0.49876243     0.00000000     0.46917522
     0.06530988     0.51323851     0.00000000     0.45329414
     0.06772876     0.52720915     0.00000000     0.43696666
     0.07014765     0.54066059     0.00000000     0.42020885
     0.07256653     0.55357958     0.00000000     0.40303721
     0.07498541     0.56595341     0.00000000     0.38546866
     0.07740430     0.57776988     0.00000000     0.36752050
     0.07982318     0.58901736     0.00000000     0.34921040
     0.08224207     0.59968476     0.00000000     0.33055640
     0.08466095     0.60976160     0.00000000     0.31157686
     0.08707984     0.61923794     0.00000000     0.29229048
     0.08949872     0.62810445     0.00000000     0.27271625
     0.09191760     0.63635239     0.00000000     0.25287345
     0.09433649     0.64397366     0.00000000     0.23278162
     0.09675537     0.65096073     0.00000000     0.21246054
     0.09917426     0.65730673     0.00000000     0.19193023
     0.10159314     0.66300541     0.00000000     0.17121090
     0.10401203     0.66805116     0.00000000     0.15032296
     0.10643091     0.67243901     0.00000000     0.12928699
     0.10884979     0.67616464     0.00000000     0.10812369
     0.11126868     0.67922437     0.00000000     0.08685391
     0.11368756     0.68161520     0.00000000     0.06549860
     0.11610645     0.68333477     0.00000000     0.04407879
     0.11852533     0.68438139     0.00000000     0.02261556
     0.12094422     0.68475402     0.00000000     0.00113006
     0.12336310     0.68445231     0.00000000    -0.02035655
     0.12578198     0.68347654     0.00000000    -0.04182311
     0.12820087     0.68182768     0.00000000    -0.06324849
     0.13061975     0.67950734     0.00000000    -0.08461157
     0.13303864     0.67651783     0.00000000    -0.10589133
     0.13545752     0.67286208     0.00000000    -0.12706681
     0.13787641     0.66854368     0.00000000    -0.14811716
     0.14029529     0.66356691     0.00000000    -0.16902163
     0.14271418     0.65793664     0.00000000    -0.18975965
     0.14513306     0.65165844     0.00000000    -0.21031080
     0.14755194     0.64473847     0.00000000    -0.23065483
     0.14997083     0.63718357     0.00000000    -0.25077171
     0.15238971     0.62900116     0.00000000    -0.27064163
     0.15480860     0.62019931     0.00000000    -0.29024502
     0.15722748     0.61078668     0.00000000    -0.30956257
     0.15964637     0.60077254     0.00000000    -0.32857526
     0.16206525     0.59016676     0.00000000    -0.34726437
     0.16448413     0.57897978     0.00000000    -0.36561149
     0.16690302     0.56722261     0.00000000    -0.38359856
     0.16932190     0.55490685     0.00000000    -0.40120786
     0.17174079     0.54204460     0.00000000    -0.41842204
     0.17415967     0.52864855     0.00000000    -0.43522416
     0.17657856     0.51473187     0.00000000    -0.45159766
     0.17899744     0.50030829     0.00000000    -0.46752643
     0.18141632     0.48539200     0.00000000    -0.48299478
     0.18383521     0.46999769     0.00000000    -0.49798747
     0.18625409     0.45414053     0.00000000    -0.51248974
     0.18867298     0.43783612     0.00000000    -0.52648730
     0.19109186     0.42110054     0.00000000    -0.53996638
     0.19351075     0.40395024     0.00000000    -0.55291369
     0.19592963     0.38640214     0.00000000    -0.56531649
     0.19834851     0.36847350     0.00000000    -0.57716257
     0.20076740     0.35018199     0.00000000    -0.58844025
     0.20318628     0.33154562     0.00000000    -0.59913842
     0.20560517     0.31258274     0.00000000    -0.60924657
     0.20802405     0.29331202     0.00000000    -0.61875472
     0.21044294     0.27375245     0.00000000    -0.62765352
     0.21286182     0.25392329     0.00000000    -0.63593421
     0.21528071     0.23384406     0.00000000    -0.64358862
     0.21769959     0.21353454     0.00000000    -0.65060921
     0.22011847     0.19301473     0.00000000    -0.65698909
     0.22253736     0.17230484     0.00000000    -0.66272196
     0.22495624     0.15142526     0.00000000    -0.66780217
     0.22737513     0.13039655     0.00000000    -0.67222473
     0.22979401     0.10923943     0.00000000    -0.67598528
     0.23221290     0.08797473     0.00000000    -0.67908011
     0.23463178     0.06662339     0.00000000    -0.68150618
     0.23705066     0.04520644     0.00000000    -0.68326110
     0.23946955     0.02374498     0.00000000    -0.68434313
     0.24188843     0.00226012     0.00000000    -0.68475123
     0.24430732    -0.01922696    -0.00000000    -0.68448497
     0.24672620    -0.04069510    -0.00000000    -0.68354463
     0.24914509    -0.06212317    -0.00000000    -0.68193113
     0.25156397    -0.08349005    -0.00000000    -0.67964606
     0.25398285    -0.10477472    -0.00000000    -0.67669166
     0.25640174    -0.12595620    -0.00000000    -0.67307086
     0.25882062    -0.14701365    -0.00000000    -0.66878721
     0.26123951    -0.16792631    -0.00000000    -0.66384494
     0.26365839    -0.18867359    -0.00000000    -0.65824891
     0.26607728    -0.20923507    -0.00000000    -0.65200463
     0.26849616    -0.22959049    -0.00000000    -0.64511825
     0.27091504    -0.24971981    -0.00000000    -0.63759655
     0.27333393    -0.26960321    -0.00000000    -0.62944695
     0.27575281    -0.28922109    -0.00000000    -0.62067746
     0.27817170    -0.30855416    -0.00000000    -0.61129672
     0.28059058    -0.32758335    -0.00000000    -0.60131398
     0.28300947    -0.34628994    -0.00000000    -0.59073905
     0.28542835    -0.36465550    -0.00000000    -0.57958237
     0.28784723    -0.38266194    -0.00000000    -0.56785490
     0.29026612    -0.40029154    -0.00000000    -0.55556821
     0.29268500    -0.41752692    -0.00000000    -0.54273439
     0.29510389    -0.43435113    -0.00000000    -0.52936608
     0.29752277    -0.45074758    -0.00000000    -0.51547645
     0.29994166    -0.46670013    -0.00000000    -0.50107918
     0.30236054    -0.48219307    -0.00000000    -0.48618843
     0.30477943    -0.49721114    -0.00000000    -0.47081889
     0.30719831    -0.51173956    -0.00000000    -0.45498568
     0.30961719    -0.52576402    -0.00000000    -0.43870440
     0.31203608    -0.53927069    -0.00000000    -0.42199108
     0.31445496    -0.55224629    -0.00000000    -0.40486218
     0.31687385    -0.56467804    -0.00000000    -0.38733457
     0.31929273    -0.57655368    -0.00000000    -0.36942550
     0.32171162    -0.58786153    -0.00000000    -0.35115263
     0.32413050    -0.59859045    -0.00000000    -0.33253394
     0.32654938    -0.60872988    -0.00000000    -0.31358776
     0.32896827    -0.61826982    -0.00000000    -0.29433277
     0.33138715    -0.62720089    -0.00000000    -0.27478791
     0.33380604    -0.63551429    -0.00000000    -0.25497244
     0.33622492    -0.64320182    -0.00000000    -0.23490587
     0.33864381    -0.65025593    -0.00000000    -0.21460796
     0.34106269    -0.65666966    -0.00000000    -0.19409871
     0.34348157    -0.66243670    -0.00000000    -0.17339830
     0.34590046    -0.66755136    -0.00000000    -0.15252713
     0.34831934    -0.67200862    -0.00000000    -0.13150576
     0.35073823    -0.67580408    -0.00000000    -0.11035487
     0.35315711    -0.67893400    -0.00000000    -0.08909531
     0.35557600    -0.68139530    -0.00000000    -0.06774800
     0.35799488    -0.68318556    -0.00000000    -0.04633398
     0.36041376    -0.68430302    -0.00000000    -0.02487433
     0.36283265    -0.68474656    -0.00000000    -0.00339018
     0.36525153    -0.68451577     0.00000000     0.01809731
     0.36767042    -0.68361086     0.00000000     0.03956698
     0.37008930    -0.68203272     0.00000000     0.06099768
     0.37250819    -0.67978292     0.00000000     0.08236831
     0.37492707    -0.67686365     0.00000000     0.10365782
     0.37734595    -0.67327781     0.00000000     0.12484525
     0.37976484    -0.66902892     0.00000000     0.14590973
     0.38218372    -0.66412117     0.00000000     0.16683052
     0.38460261    -0.65855938     0.00000000     0.18758702
     0.38702149    -0.65234904     0.00000000     0.20815877
     0.38944038    -0.64549627     0.00000000     0.22852553
     0.39185926    -0.63800780     0.00000000     0.24866724
     0.39427815    -0.62989102     0.00000000     0.26856405
     0.39669703    -0.62115392     0.00000000     0.28819639
     0.39911591    -0.61180510     0.00000000     0.30754490
     0.40153480    -0.60185377     0.00000000     0.32659054
     0.40395368    -0.59130974     0.00000000     0.34531456
     0.40637257    -0.58018337     0.00000000     0.36369851
     0.40879145    -0.56848564     0.00000000     0.38172428
     0.41121034    -0.55622806     0.00000000     0.39937413
     0.41362922    -0.54342270     0.00000000     0.41663067
     0.41604810    -0.53008218     0.00000000     0.43347691
     0.41846699    -0.51621963     0.00000000     0.44989626
     0.42088587    -0.50184870     0.00000000     0.46587255
     0.42330476    -0.48698354     0.00000000     0.48139005
     0.42572364    -0.47163881     0.00000000     0.49643347
     0.42814253    -0.45582959     0.00000000     0.51098799
     0.43056141    -0.43957148     0.00000000     0.52503930
     0.43298029    -0.42288047     0.00000000     0.53857354
     0.43539918    -0.40577301     0.00000000     0.55157739
     0.43781806    -0.38826594     0.00000000     0.56403804
     0.44023695    -0.37037650     0.00000000     0.57594323
     0.44265583    -0.35212231     0.00000000     0.58728122
     0.44507472    -0.33352135     0.00000000     0.59804085
     0.44749360    -0.31459193     0.00000000     0.60821153
     0.44991248    -0.29535271     0.00000000     0.61778324
     0.45233137    -0.27582261     0.00000000     0.62674655
     0.45475025    -0.25602089     0.00000000     0.63509263
     0.45716914    -0.23596703     0.00000000     0.64281328
     0.45958802    -0.21568080     0.00000000     0.64990087
     0.46200691    -0.19518215     0.00000000     0.65634844
     0.46442579    -0.17449130     0.00000000     0.66214963
     0.46684468    -0.15362860     0.00000000     0.66729874
     0.46926356    -0.13261461     0.00000000     0.67179068
     0.47168244    -0.11147001     0.00000000     0.67562104
     0.47410133    -0.09021564     0.00000000     0.67878604
     0.47652021    -0.06887243     0.00000000     0.68128257
     0.47893910    -0.04746139     0.00000000     0.68310817
     0.48135798    -0.02600361     0.00000000     0.68426103
     0.48377687    -0.00452022     0.00000000     0.68474004
     0.48619575     0.01696762     0.00000000     0.68454470
     0.48861463     0.03843875     0.00000000     0.68367522
     0.49103352     0.05987203     0.00000000     0.68213246
     0.49345240     0.08124634     0.00000000     0.67991792
     0.49587129     0.10254064     0.00000000     0.67703380
     0.49829017     0.12373396     0.00000000     0.67348293
     0.50070906     0.14480543     0.00000000     0.66926881
     0.50312794     0.16573428     0.00000000     0.66439559
     0.50554682     0.18649993     0.00000000     0.65886806
     0.50796571     0.20708190     0.00000000     0.65269168
     0.51038459     0.22745995     0.00000000     0.64587253
     0.51280348     0.24761398     0.00000000     0.63841731
     0.51522236     0.26752417     0.00000000     0.63033338
     0.51764125     0.28717089     0.00000000     0.62162869
     0.52006013     0.30653481     0.00000000     0.61231182
     0.52247901     0.32559685     0.00000000     0.60239193
     0.52489790     0.34433824     0.00000000     0.59187881
     0.52731678     0.36274052     0.00000000     0.58078280
     0.52973567     0.38078558     0.00000000     0.56911483
     0.53215455     0.39845563     0.00000000     0.55688640
     0.53457344     0.41573328     0.00000000     0.54410954
     0.53699232     0.43260152     0.00000000     0.53079683
     0.53941120     0.44904372     0.00000000     0.51696140
     0.54183009     0.46504371     0.00000000     0.50261685
     0.54424897     0.48058571     0.00000000     0.48777733
     0.54666786     0.49565444     0.00000000     0.47245744
     0.54908674     0.51023504     0.00000000     0.45667227
     0.55150563     0.52431315     0.00000000     0.44043736
     0.55392451     0.53787492     0.00000000     0.42376871
     0.55634340     0.55090698     0.00000000     0.40668273
     0.55876228     0.56339651     0.00000000     0.38919625
     0.56118116     0.57533120     0.00000000     0.37132648
     0.56360005     0.58669931     0.00000000     0.35309103
     0.56601893     0.59748962     0.00000000     0.33450785
     0.56843782     0.60769153     0.00000000     0.31559525
     0.57085670     0.61729497     0.00000000     0.29637184
     0.57327559     0.62629050     0.00000000     0.27685657
     0.57569447     0.63466925     0.00000000     0.25706864
     0.57811335     0.64242298     0.00000000     0.23702756
     0.58053224     0.64954405     0.00000000     0.21675304
     0.58295112     0.65602544     0.00000000     0.19626507
     0.58537001     0.66186077     0.00000000     0.17558382
     0.58778889     0.66704429     0.00000000     0.15472964
     0.59020778     0.67157091     0.00000000     0.13372309
     0.59262666     0.67543616     0.00000000     0.11258485
     0.59504554     0.67863623     0.00000000     0.09133573
     0.59746443     0.68116798     0.00000000     0.06999667
     0.59988331     0.68302891     0.00000000     0.04858867
     0.60230220     0.68421719     0.00000000     0.02713282
     0.60472108     0.68473164     0.00000000     0.00565025
     0.60713997     0.68457177     0.00000000    -0.01583788
     0.60955885     0.68373773     0.00000000    -0.03731042
     0.61197773     0.68223034     0.00000000    -0.05874621
     0.61439662     0.68005108     0.00000000    -0.08012415
     0.61681550     0.67720210     0.00000000    -0.10142318
     0.61923439     0.67368621     0.00000000    -0.12262233
     0.62165327     0.66950687     0.00000000    -0.14370072
     0.62407216     0.66466820     0.00000000    -0.16463760
     0.62649104     0.65917495     0.00000000    -0.18541233
     0.62890992     0.65303255     0.00000000    -0.20600447
     0.63132881     0.64624703     0.00000000    -0.22639374
     0.63374769     0.63882509     0.00000000    -0.24656005
     0.63616658     0.63077402     0.00000000    -0.26648355
     0.63858546     0.62210177     0.00000000    -0.28614462
     0.64100435     0.61281686     0.00000000    -0.30552388
     0.64342323     0.60292845     0.00000000    -0.32460227
     0.64584212     0.59244627     0.00000000    -0.34336098
     0.64826100     0.58138065     0.00000000    -0.36178155
     0.65067988     0.56974248     0.00000000    -0.37984584
     0.65309877     0.55754322     0.00000000    -0.39753605
     0.65551765     0.54479489     0.00000000    -0.41483476
     0.65793654     0.53151004     0.00000000    -0.43172495
     0.66035542     0.51770176     0.00000000    -0.44818996
     0.66277431     0.50338364     0.00000000    -0.46421360
     0.66519319     0.48856978     0.00000000    -0.47978007
     0.66761207     0.47327478     0.00000000    -0.49487406
     0.67003096     0.45751369     0.00000000    -0.50948069
     0.67244984     0.44130205     0.00000000    -0.52358558
     0.67486873     0.42465580     0.00000000    -0.53717483
     0.67728761     0.40759135     0.00000000    -0.55023508
     0.67970650     0.39012550     0.00000000    -0.56275345
     0.68212538     0.37227545     0.00000000    -0.57471761
     0.68454426     0.35405879     0.00000000    -0.58611579
     0.68696315     0.33549344     0.00000000    -0.59693676
     0.68938203     0.31659770     0.00000000    -0.60716987
     0.69180092     0.29739017     0.00000000    -0.61680502
     0.69421980     0.27788977     0.00000000    -0.62583275
     0.69663869     0.25811570     0.00000000    -0.63424414
     0.69905757     0.23808744     0.00000000    -0.64203094
     0.70147645     0.21782470     0.00000000    -0.64918545
     0.70389534     0.19734745     0.00000000    -0.65570064
     0.70631422     0.17667586     0.00000000    -0.66157010
     0.70873311     0.15583027     0.00000000    -0.66678803
     0.71115199     0.13483121     0.00000000    -0.67134931
     0.71357088     0.11369938     0.00000000    -0.67524944
     0.71598976     0.09245557     0.00000000    -0.67848457
     0.71840864     0.07112072     0.00000000    -0.68105154
     0.72082753     0.04971582     0.00000000    -0.68294779
     0.72324641     0.02826196     0.00000000    -0.68417148
     0.72566530     0.00678027     0.00000000    -0.68472139
     0.72808418    -0.01470810    -0.00000000    -0.68459698
     0.73050307    -0.03618198    -0.00000000    -0.68379837
     0.73292195    -0.05762023    -0.00000000    -0.68232636
     0.73534084    -0.07900174    -0.00000000    -0.68018238
     0.73775972    -0.10030545    -0.00000000    -0.67736856
     0.74017860    -0.12151037    -0.00000000    -0.67388766
     0.74259749    -0.14259563    -0.00000000    -0.66974311
     0.74501637    -0.16354046    -0.00000000    -0.66493900
     0.74743526    -0.18432423    -0.00000000    -0.65948004
     0.74985414    -0.20492648    -0.00000000    -0.65337163
     0.75227303    -0.22532692    -0.00000000    -0.64661977
     0.75469191    -0.24550545    -0.00000000    -0.63923112
     0.75711079    -0.26544221    -0.00000000    -0.63121294
     0.75952968    -0.28511756    -0.00000000    -0.62257315
     0.76194856    -0.30451213    -0.00000000    -0.61332024
     0.76436745    -0.32360680    -0.00000000    -0.60346333
     0.76678633    -0.34238279    -0.00000000    -0.59301212
     0.76920522    -0.36082160    -0.00000000    -0.58197691
     0.77162410    -0.37890507    -0.00000000    -0.57036857
     0.77404298    -0.39661539    -0.00000000    -0.55819852
     0.77646187    -0.41393511    -0.00000000    -0.54547875
     0.77888075    -0.43084720    -0.00000000    -0.53222180
     0.78129964    -0.44733498    -0.00000000    -0.51844071
     0.78371852    -0.46338222    -0.00000000    -0.50414905
     0.78613741    -0.47897312    -0.00000000    -0.48936091
