#           time (fs)    |     mu_x (e.angstrom)   |     mu_y (e.angstrom)   |     mu_z (e.angstrom)   |
        0.000000000000000       -0.000000000000000       -0.000000000000000        0.000000000000000
        0.002418884326505       -0.000000008311593        0.000000006548063        0.000101260209645
        0.004837768653010       -0.000000033245989        0.000000026192243        0.000202516824817
        0.007256652979515       -0.000000074400434        0.000000058614799        0.000302136538536
        0.009675537306020       -0.000000131909492        0.000000103922477        0.000401755963084
        0.012094421632525       -0.000000204442645        0.000000161066034        0.000498132600672
        0.014513305959030       -0.000000292801772        0.000000230678535        0.000594515480359
        0.016932190285535       -0.000000394231085        0.000000310587286        0.000686105277209
        0.019351074612040       -0.000000510708380        0.000000402352363        0.000777710879019
        0.021769958938545       -0.000000637599375        0.000000502320562        0.000863053619977
        0.024188843265050       -0.000000778525947        0.000000613347807        0.000948424462009
        0.026607727591555       -0.000000926581731        0.000000729990294        0.001026166758142
        0.029026611918060       -0.000001087444754        0.000000856724440        0.001103951789040
        0.031445496244565       -0.000001251616512        0.000000986063690        0.001172868525048
        0.033864380571070       -0.000001427172874        0.000001124374150        0.001241844482921
        0.036283264897575       -0.000001601788822        0.000001261941856        0.001300858093741
        0.038702149224080       -0.000001786196825        0.000001407226464        0.001359948705261
        0.041121033550585       -0.000001965106692        0.000001548177354        0.001408145976795
        0.043539917877090       -0.000002152072836        0.000001695477993        0.001456438693246
        0.045958802203595       -0.000002328804636        0.000001834713321        0.001493084823316
        0.048377686530100       -0.000002511742206        0.000001978840851        0.001529844831365
        0.050796570856605       -0.000002679667764        0.000002111138789        0.001554394532394
        0.053215455183110       -0.000002851863680        0.000002246804470        0.001579075822413
        0.055634339509615       -0.000003004369209        0.000002366954474        0.001591181296161
        0.058053223836120       -0.000003159155407        0.000002488904978        0.001603434619485
        0.060472108162625       -0.000003289813277        0.000002591843103        0.001602950285618
        0.062890992489130       -0.000003420738786        0.000002694996064        0.001602627883213
        0.065309876815635       -0.000003523476635        0.000002775938182        0.001589611796757
        0.067728761142140       -0.000003624476486        0.000002855515265        0.001576768834717
        0.070147645468645       -0.000003693739827        0.000002910085173        0.001551480781618
        0.072566529795150       -0.000003759296975        0.000002961739636        0.001526373482693
        0.074985414121655       -0.000003790201599        0.000002986089129        0.001489269796936
        0.077404298448160       -0.000003815498173        0.000003006024998        0.001452350311188
        0.079823182774665       -0.000003803968847        0.000002996943145        0.001404075510306
        0.082242067101170       -0.000003785023266        0.000002982023247        0.001355983620984
        0.084660951427675       -0.000003727915480        0.000002937032334        0.001297359008446
        0.087079835754180       -0.000003661702225        0.000002884872682        0.001238910820491
        0.089498720080685       -0.000003556904121        0.000002802308533        0.001170920252589
        0.091917604407190       -0.000003441453341        0.000002711356819        0.001103094059967
        0.094336488733695       -0.000003287965328        0.000002590431550        0.001026867120578
        0.096755373060200       -0.000003122439822        0.000002460027829        0.000950786694086
        0.099174257386705       -0.000002920429872        0.000002300873434        0.000867579562358
        0.101593141713210       -0.000002705177506        0.000002131291440        0.000784495140938
        0.104012026039715       -0.000002456010592        0.000001934983015        0.000695669473885
        0.106430910366220       -0.000002192590667        0.000001727450964        0.000606936779151
        0.108849794692725       -0.000001898831391        0.000001496008796        0.000513936962667
        0.111268679019230       -0.000001590014059        0.000001252708943        0.000420994587693
        0.113687563345735       -0.000001255402039        0.000000989079135        0.000325323735222
        0.116106447672240       -0.000000905140394        0.000000713125801        0.000229669284156
        0.118525331998745       -0.000000534538576        0.000000421139563        0.000132864381645
        0.120944216325250       -0.000000147913656        0.000000116535812        0.000036029756024
        0.123363100651755        0.000000252769701       -0.000000199152006       -0.000060363635359
        0.125781984978260        0.000000669630219       -0.000000527578422       -0.000156837394953
        0.128200869304765        0.000001093544596       -0.000000861570518       -0.000251290460793
        0.130619753631270        0.000001533572638       -0.000001208250871       -0.000345878363075
        0.133038637957775        0.000001973051474       -0.000001554506948       -0.000436903965645
        0.135457522284280        0.000002428367853       -0.000001913233401       -0.000528121873043
        0.137876406610785        0.000002875075586       -0.000002265186027       -0.000614298680115
        0.140295290937290        0.000003337139922       -0.000002629229765       -0.000700727322941
        0.142714175263795        0.000003782237009       -0.000002979914399       -0.000780722740744
        0.145133059590300        0.000004242015394       -0.000003342157745       -0.000861030548982
        0.147551943916805        0.000004676338068       -0.000003684354381       -0.000933622085389
        0.149970828243310        0.000005124485230       -0.000004037434327       -0.001006586466609
        0.152389712569815        0.000005538736397       -0.000004363817911       -0.001070681177547
        0.154808596896320        0.000005965788695       -0.000004700278190       -0.001135207896141
        0.157227481222825        0.000006350736099       -0.000005003574754       -0.001189859600809
        0.159646365549330        0.000006747311476       -0.000005316023386       -0.001244999946012
        0.162065249875835        0.000007093989027       -0.000005589168681       -0.001289423934175
        0.164484134202340        0.000007450989812       -0.000005870437757       -0.001334389401745
        0.166903018528845        0.000007750897889       -0.000006106735067       -0.001367974398539
        0.169321902855350        0.000008059712212       -0.000006350039440       -0.001402148652763
        0.171740787181855        0.000008305012680       -0.000006543313227       -0.001424465852407
        0.174159671508360        0.000008557710269       -0.000006742404774       -0.001447413780675
        0.176578555834865        0.000008741411998       -0.000006887146838       -0.001458222809490
        0.178997440161370        0.000008930930138       -0.000007036460959       -0.001469696530277
        0.181416324487875        0.000009047060965       -0.000007127965917       -0.001468948250575
        0.183835208814380        0.000009167376561       -0.000007222757098       -0.001468889986438
        0.186254093140885        0.000009211137828       -0.000007257244127       -0.001456726105447
        0.188672977467390        0.000009257421732       -0.000007293707515       -0.001445267884759
        0.191091861793895        0.000009225321833       -0.000007268425569       -0.001422017385797
        0.193510746120400        0.000009194071891       -0.000007243801792       -0.001399477589627
        0.195929630446905        0.000009084035659       -0.000007157115772       -0.001365650055441
        0.198348514773410        0.000008973185314       -0.000007069776501       -0.001332526878187
        0.200767399099915        0.000008784636479       -0.000006921232227       -0.001288802827828
        0.203186283426420        0.000008593636215       -0.000006770744345       -0.001245764771321
        0.205605167752925        0.000008327550710       -0.000006561110553       -0.001192983181272
        0.208024052079430        0.000008057420131       -0.000006348277188       -0.001140856750978
        0.210442936405935        0.000007716348545       -0.000006079563229       -0.001079999977740
        0.212861820732440        0.000007369697434       -0.000005806440359       -0.001019754795813
        0.215280705058945        0.000006957755531       -0.000005481888741       -0.000951931159935
        0.217699589385450        0.000006538772834       -0.000005151776527       -0.000884662752330
        0.220118473711955        0.000006061599681       -0.000004775829941       -0.000811087082274
        0.222537358038460        0.000005576010006       -0.000004393238468       -0.000737997635264
        0.224956242364965        0.000005040693888       -0.000003971481432       -0.000659970102974
        0.227375126691470        0.000004495681732       -0.000003542071029       -0.000582347517585
        0.229794011017975        0.000003910654699       -0.000003081146822       -0.000501231125436
        0.232212895344480        0.000003314757290       -0.000002611643650       -0.000420426726013
        0.234631779670985        0.000002689659823       -0.000002119147703       -0.000337623826761
        0.237050663997490        0.000002052630095       -0.000001617235810       -0.000255029101585
        0.239469548323995        0.000001398148010       -0.000001101587215       -0.000171957348377
        0.241888432650500        0.000000730789858       -0.000000575778746       -0.000088980115701
        0.244307316977005        0.000000058466151       -0.000000046072021       -0.000007048248142
        0.246726201303510       -0.000000627555286        0.000000494442247        0.000074911350120
        0.249145085630015       -0.000001305530393        0.000001028602575        0.000154327475730
        0.251563969956520       -0.000001997900138        0.000001574119799        0.000233900748279
        0.253982854283025       -0.000002668917179        0.000002102798821        0.000309481481095
        0.256401738609530       -0.000003354899734        0.000002643284771        0.000385354329623
        0.258820622936035       -0.000004006171840        0.000003156407742        0.000455858506713
        0.261239507262540       -0.000004672854198        0.000003681688276        0.000526793547765
        0.263658391589045       -0.000005291668237        0.000004169238505        0.000591079362693
        0.266077275915550       -0.000005926212043        0.000004669198258        0.000655936658032
        0.268496160242055       -0.000006500184256        0.000005121418526        0.000712980765520
        0.270915044568560       -0.000007090082290        0.000005586203004        0.000770736813889
        0.273333928895065       -0.000007607413416        0.000005993796600        0.000819651350427
        0.275752813221570       -0.000008140745391        0.000006414013735        0.000869416023182
        0.278171697548075       -0.000008590470209        0.000006768341075        0.000909463258756
        0.280590581874580       -0.000009056152811        0.000007135258248        0.000950494396738
        0.283009466201085       -0.000009428379007        0.000007428525096        0.000981098772849
        0.285428350527590       -0.000009816405101        0.000007734257616        0.001012814201451
        0.287847234854095       -0.000010102536512        0.000007959690985        0.001033571554677
        0.290266119180600       -0.000010404198566        0.000008197378129        0.001055558317676
        0.292685003507105       -0.000010597138025        0.000008349386107        0.001066242135493
        0.295103887833610       -0.000010805230998        0.000008513350988        0.001078262795180
        0.297522772160115       -0.000010899558341        0.000008587662991        0.001078827400734
        0.299941656486620       -0.000011008557616        0.000008673552742        0.001080823301323
        0.302360540813125       -0.000011000678776        0.000008667336985        0.001071403915592
        0.304779425139630       -0.000011006889082        0.000008672240096        0.001063495358113
        0.307198309466135       -0.000010895152702        0.000008584195469        0.001044405040509
        0.309617193792640       -0.000010796824486        0.000008506733467        0.001026888369444
        0.312036078119145       -0.000010581603027        0.000008337153426        0.000998611890491
        0.314454962445650       -0.000010379013272        0.000008177544550        0.000971953544474
        0.316873846772155       -0.000010062746214        0.000007928351154        0.000935138295962
        0.319292731098660       -0.000009758241349        0.000007688444149        0.000899965926081
        0.321711615425165       -0.000009345438786        0.000007363190881        0.000855410024076
        0.324130499751670       -0.000008943437994        0.000007046467600        0.000812500832787
        0.326549384078175       -0.000008440643639        0.000006650310216        0.000761138616326
        0.328968268404680       -0.000007947601623        0.000006261856279        0.000711405116975
        0.331387152731185       -0.000007363315010        0.000005801491502        0.000654290289372
        0.333806037057690       -0.000006787644021        0.000005347934859        0.000598763729927
        0.336224921384195       -0.000006132202455        0.000004831507372        0.000537050429585
        0.338643805710700       -0.000005484154180        0.000004320925243        0.000476862163799
        0.341062690037205       -0.000004769575803        0.000003757904040        0.000411784286699
        0.343481574363710       -0.000004061084471        0.000003199699301        0.000348145410792
        0.345900458690215       -0.000003300874551        0.000002600725070        0.000280994536706
        0.348319343016720       -0.000002545363421        0.000002005473792        0.000215174139264
        0.350738227343225       -0.000001754286749        0.000001382179588        0.000147276437773
        0.353157111669730       -0.000000966440845        0.000000761451983        0.000080578834366
        0.355575995996235       -0.000000160263809        0.000000126260022        0.000013271344585
        0.357994880322740        0.000000644227480       -0.000000507582358       -0.000052987313780
        0.360413764649245        0.000001449020896       -0.000001141684460       -0.000118380624677
        0.362832648975750        0.000002253747133       -0.000001775711941       -0.000182895969016
        0.365251533302255        0.000003040260606       -0.000002395411671       -0.000245087958869
        0.367670417628760        0.000003828394693       -0.000003016366277       -0.000306590840903
        0.370089301955265        0.000004579640739       -0.000003608279283       -0.000364354350038
        0.372508186281770        0.000005334259056       -0.000004202826969       -0.000421633699719
        0.374927070608275        0.000006033490382       -0.000004753758124       -0.000473823714775
        0.377345954934780        0.000006737902929       -0.000005308748902       -0.000525748423351
        0.379764839261285        0.000007368947884       -0.000005805956613       -0.000571322865288
        0.382183723587790        0.000008007032381       -0.000006308687783       -0.000616862316244
        0.384602607914295        0.000008554628222       -0.000006740146575       -0.000654901092628
        0.387021492240800        0.000009111161892       -0.000007178624149       -0.000693143984875
        0.389440376567305        0.000009561279492       -0.000007533280507       -0.000722865974870
        0.391859260893810        0.000010022262183       -0.000007896473803       -0.000753037110531
        0.394278145220315        0.000010362415818       -0.000008164490258       -0.000773814785005
        0.396697029546820        0.000010715378122       -0.000008442574674       -0.000795289527732
        0.399115913873325        0.000010934914106       -0.000008615557232       -0.000806660945847
        0.401534798199830        0.000011169204304       -0.000008800140331       -0.000818977094119
        0.403953682526335        0.000011259562509       -0.000008871344528       -0.000820655061245
        0.406372566852840        0.000011366606385       -0.000008955670756       -0.000823521924036
        0.408791451179345        0.000011321549055       -0.000008920181938       -0.000815400142937
        0.411210335505850        0.000011295077044       -0.000008899311597       -0.000808704651726
        0.413629219832355        0.000011110879775       -0.000008754195399       -0.000790860749069
        0.416048104158860        0.000010947116370       -0.000008625153870       -0.000774670489635
        0.418466988485365        0.000010622716738       -0.000008369573315       -0.000747365852052
        0.420885872811870        0.000010320527662       -0.000008131467020       -0.000721928951091
        0.423304757138375        0.000009857627651       -0.000007766763213       -0.000685605358490
        0.425723641464880        0.000009418621003       -0.000007420859293       -0.000651347212894
        0.428142525791385        0.000008821740157       -0.000006950593289       -0.000606620310552
        0.430561410117890        0.000008250318495       -0.000006500360631       -0.000564137200379
        0.432980294444395        0.000007526795539       -0.000005930314704       -0.000511786904668
        0.435399178770900        0.000006830156700       -0.000005381424575       -0.000461836583479
        0.437818063097405        0.000005990098311       -0.000004719561840       -0.000402794568011
        0.440236947423910        0.000005178183666       -0.000004079847103       -0.000346283975578
        0.442655831750415        0.000004234359961       -0.000003336229158       -0.000281618434224
        0.445074716076920        0.000003319749735       -0.000002615601789       -0.000219588725600
        0.447493600403425        0.000002287437064       -0.000001802264844       -0.000150486655421
        0.449912484729930        0.000001285193319       -0.000001012592202       -0.000084095786412
        0.452331369056435        0.000000181965884       -0.000000143382889       -0.000011843076296
        0.454750253382940       -0.000000890575274        0.000000701676001        0.000057653772518
        0.457169137709445       -0.000002045102464        0.000001611303155        0.000131694123605
        0.459588022035950       -0.000003168586917        0.000002496499335        0.000202965964466
        0.462006906362455       -0.000004353060303        0.000003429720057        0.000277377142749
        0.464425790688960       -0.000005506416747        0.000004338451650        0.000349040087669
        0.466844675015465       -0.000006698087342        0.000005277342257        0.000422375889354
        0.469263559341970       -0.000007858868528        0.000006191923327        0.000493017167382
        0.471682443668475       -0.000009033970721        0.000007117759176        0.000563827148046
