#           time (fs)    |     mu_x (e.angstrom)   |     mu_y (e.angstrom)   |     mu_z (e.angstrom)   |
        0.000000000000000       -0.000000000000000       -0.000000000000000        0.000000000000000
        0.002418884326505        0.000000003708591        0.000000003787177       -0.000027956340926
        0.004837768653010        0.000000014840772        0.000000015156283       -0.000055942191061
        0.007256652979515        0.000000033219649        0.000000033925118       -0.000083474716815
        0.009675537306020        0.000000030392725        0.000000031038863       -0.000057279046146
        0.012094421632525        0.000000020106320        0.000000020532484       -0.000030309904373
        0.014513305959030       -0.000000082009108       -0.000000083752615        0.000103031596755
        0.016932190285535       -0.000000220175556       -0.000000224858245        0.000237095689121
        0.019351074612040       -0.000000560368005       -0.000000572281347        0.000527978367336
        0.021769958938545       -0.000000977841350       -0.000000998632431        0.000818930718999
        0.024188843265050       -0.000001743241314       -0.000001780302650        0.001313903987259
        0.026607727591555       -0.000002637979074       -0.000002694065805        0.001807475110330
        0.029026611918060       -0.000004057021452       -0.000004143275964        0.002548036797922
        0.031445496244565       -0.000005665956426       -0.000005786423754        0.003284708363749
        0.033864380571070       -0.000007999597588       -0.000008169683281        0.004306193826738
        0.036283264897575       -0.000010589397928       -0.000010814561530        0.005320112627979
        0.038702149224080       -0.000014120809325       -0.000014421076328        0.006650700800058
        0.041121033550585       -0.000017977189441       -0.000018359494903        0.007968714581289
        0.043539917877090       -0.000023000192716       -0.000023489366100        0.009628571468968
        0.045958802203595       -0.000028416052272       -0.000029020497530        0.011269406684980
        0.048377686530100       -0.000035222599050       -0.000035971949793        0.013269984687445
        0.050796570856605       -0.000042485303873       -0.000043389357078        0.015243583982747
        0.053215455183110       -0.000051352335587       -0.000052445339417        0.017587092832200
        0.055634339509615       -0.000060730484479       -0.000062023484327        0.019894127303340
        0.058053223836120       -0.000071906532528       -0.000073438010763        0.022573189388215
        0.060472108162625       -0.000083636576423       -0.000085418615717        0.025204757516674
        0.062890992489130       -0.000097328479553       -0.000099403228820        0.028202256909961
        0.065309876815635       -0.000111601573173       -0.000113981878035        0.031139778493104
        0.067728761142140       -0.000127961696208       -0.000130692624308        0.034428909234717
        0.070147645468645       -0.000144911166383       -0.000148005992608        0.037644218781744
        0.072566529795150       -0.000164025501618       -0.000167531294489        0.041188733959458
        0.074985414121655       -0.000183715310262       -0.000187645384657        0.044644373970689
        0.077404298448160       -0.000205592829633       -0.000209995179489        0.048399033032846
        0.079823182774665       -0.000228007392712       -0.000232894931385        0.052048743474388
        0.082242067101170       -0.000252570995331       -0.000257991423342        0.055959951125868
        0.084660951427675       -0.000277606692419       -0.000283572030664        0.059749347385772
        0.087079835754180       -0.000304686058795       -0.000311242368157        0.063755973504516
        0.089498720080685       -0.000332144731591       -0.000339302602681        0.067623401305045
        0.091917604407190       -0.000361471353832       -0.000369273752185        0.071657767697053
        0.094336488733695       -0.000391056047543       -0.000399511551676        0.075535319959425
        0.096755373060200       -0.000422260655362       -0.000431407590732        0.079524336551786
        0.099174257386705       -0.000453573805603       -0.000463418116987        0.083339014158833
        0.101593141713210       -0.000486186352780       -0.000496760115752        0.087205444490231
        0.104012026039715       -0.000518730564239       -0.000530036434930        0.090880440331425
        0.106430910366220       -0.000552182881033       -0.000564245038682        0.094544273980950
        0.108849794692725       -0.000585364384551       -0.000598181518642        0.098000357621792
        0.111268679019230       -0.000618995540284       -0.000632582284583        0.101380265529040
        0.113687563345735       -0.000652130353815       -0.000666480744870        0.104537244318667
        0.116106447672240       -0.000685194712183       -0.000700312226634        0.107552091769294
        0.118525331998745       -0.000717517470051       -0.000733390817117        0.110330323154492
        0.120944216325250       -0.000749195359099       -0.000765815330750        0.112900714490307
        0.123363100651755       -0.000779870714383       -0.000797220055729        0.115222643689494
        0.125781984978260       -0.000809281574807       -0.000827337002326        0.117272472490956
        0.128200869304765       -0.000837418022616       -0.000856155748953        0.119064169437544
        0.130619753631270       -0.000863635842939       -0.000883017312281        0.120522147955743
        0.133038637957775       -0.000888301758555       -0.000908296185829        0.121714817486848
        0.135457522284280       -0.000910372554455       -0.000930925168636        0.122515959414665
        0.137876406610785       -0.000930614190335       -0.000951686883139        0.123047399009725
        0.140295290937290       -0.000947575238240       -0.000969096393866        0.123134430236266
        0.142714175263795       -0.000962436377942       -0.000984360415252        0.122950410170076
        0.145133059590300       -0.000973336870233       -0.000995575068019        0.122275082937973
        0.147551943916805       -0.000981879795640       -0.001004379158727        0.121330624495898
        0.149970828243310       -0.000985802546568       -0.001008457404428        0.119854911380589
        0.152389712569815       -0.000987129937555       -0.001009880174345        0.118115439805023
        0.154808596896320       -0.000983213735385       -0.001005937340228        0.115812585183447
        0.157227481222825       -0.000976491088512       -0.000999121369513        0.113254935314665
        0.159646365549330       -0.000963953260906       -0.000986352949791        0.110110343529599
        0.162065249875835       -0.000948431386360       -0.000970528016054        0.106723597718609
        0.164484134202340       -0.000926590123048       -0.000948232728214        0.102735539024478
        0.166903018528845       -0.000901627257433       -0.000922738644772        0.098521678882268
        0.169321902855350       -0.000869923217560       -0.000890340746618        0.093701796527821
        0.171740787181855       -0.000835006275225       -0.000854649301785        0.088676152479871
        0.174159671508360       -0.000793022997346       -0.000811719654346        0.083049756980021
        0.176578555834865       -0.000747787475681       -0.000765455135206        0.077241242446102
        0.178997440161370       -0.000695270107234       -0.000711730497776        0.070847382235173
        0.181416324487875       -0.000639518162960       -0.000654688286969        0.064298502555604
        0.183835208814380       -0.000576390034337       -0.000590088343783        0.057189803784039
        0.186254093140885       -0.000510106259289       -0.000522251095370        0.049956433736559
        0.188672977467390       -0.000436482846325       -0.000446892739403        0.042198705925750
        0.191091861793895       -0.000359847293597       -0.000368443670410        0.034349633759339
        0.193510746120400       -0.000276047142182       -0.000282652108754        0.026021242283810
        0.195929630446905       -0.000189445187447       -0.000193984986377        0.017637482541682
        0.198348514773410       -0.000095997415589       -0.000098301283106        0.008828493352527
        0.200767399099915       -0.000000026084142       -0.000000026743203        0.000002375242781
        0.203186283426420        0.000102325869948        0.000104788521373       -0.009186518253998
        0.205605167752925        0.000206855422434        0.000211840622304       -0.018352475697473
        0.208024052079430        0.000317154073179        0.000324807824177       -0.027811229288169
        0.210442936405935        0.000429218169927        0.000439590245533       -0.037205639680786
        0.212861820732440        0.000546296470541        0.000559515488699       -0.046816320035694
        0.215280705058945        0.000664664778747        0.000680769770052       -0.056320430148629
        0.217699589385450        0.000787154930000        0.000806254038389       -0.065958839300790
        0.220118473711955        0.000910400661819        0.000932521043394       -0.075448184395717
        0.222537358038460        0.001036747263161        0.001061973724400       -0.084985621477767
        0.224956242364965        0.001163261701405        0.001191608526830       -0.094331809208188
        0.227375126691470        0.001291739170655        0.001323265209115       -0.103636941242481
        0.229794011017975        0.001419750413728        0.001454456194567       -0.112709535416857
        0.232212895344480        0.001548484506678        0.001586400553038       -0.121650346930064
        0.234631779670985        0.001676080232773        0.001717192523492       -0.130318820644963
        0.237050663997490        0.001803073400697        0.001847382022213       -0.138764610527057
        0.239469548323995        0.001928227359252        0.001975703008803       -0.146900337053513
        0.241888432650500        0.002051387593136        0.002101998073119       -0.154723730389793
        0.244307316977005        0.002171989444780        0.002225689486566       -0.162201979708220
        0.246726201303510        0.002289162172755        0.002345885724552       -0.169280922241475
        0.249145085630015        0.002403050219735        0.002462735403902       -0.175982831220801
        0.251563969956520        0.002512052750771        0.002574598393399       -0.182202534588604
        0.253982854283025        0.002617049030359        0.002682376052588       -0.188017019429407
        0.256401738609530        0.002715706974787        0.002783678154510       -0.193271826297888
        0.258820622936035        0.002809654129911        0.002880172673369       -0.198097406936316
        0.261239507262540        0.002895839176941        0.002968731284895       -0.202292546543787
        0.263658391589045        0.002976638472532        0.003051789246658       -0.206039054174366
        0.266077275915550        0.003048306867683        0.003125505869594       -0.209092260539446
        0.268496160242055        0.003113956688566        0.003193070711018       -0.211682401201074
        0.270915044568560        0.003169187730077        0.003249970181013       -0.213525368286043
        0.273333928895065        0.003217821876921        0.003300121294030       -0.214896117521120
        0.275752813221570        0.003254855739796        0.003338390495839       -0.215475767933337
        0.278171697548075        0.003284780833477        0.003369381601530       -0.215579573845317
        0.280590581874580        0.003302055032357        0.003387406984364       -0.214859120184595
        0.283009466201085        0.003311786343473        0.003397703091428       -0.213664894769638
        0.285428350527590        0.003307970160329        0.003394106297117       -0.211624675478236
        0.287847234854095        0.003296265198800        0.003382418558495       -0.209118556888928
        0.290266119180600        0.003270291427510        0.003356089484325       -0.205756631433280
        0.292685003507105        0.003236180656147        0.003321407277856       -0.201942502849916
        0.295103887833610        0.003187274052265        0.003271533916171       -0.197274994262844
        0.297522772160115        0.003130088126877        0.003213153498825       -0.192174748304149
        0.299941656486620        0.003057789996255        0.003139247927378       -0.186235924543632
        0.302360540813125        0.002977182982150        0.003056797048267       -0.179889465641585
        0.304779425139630        0.002881371395357        0.002958716989368       -0.172731554868877
        0.307198309466135        0.002777339464997        0.002852174894777       -0.165196535747524
        0.309617193792640        0.002658244644770        0.002730140317644       -0.156889274471296
        0.312036078119145        0.002531139822978        0.002599852641809       -0.148240566777502
        0.314454962445650        0.002389354318339        0.002454456951044       -0.138870483812878
        0.316873846772155        0.002239892909029        0.002301145059001       -0.129199387000681
        0.319292731098660        0.002076376241576        0.002133360492205       -0.118868830295863
        0.321711615425165        0.001905641643006        0.001958124924913       -0.108282027000843
        0.324130499751670        0.001721719187698        0.001769301873025       -0.097107944516462
        0.326549384078175        0.001531158881251        0.001573619638987       -0.085726214792540
        0.328968268404680        0.001328514825380        0.001365479702487       -0.073838704694034
        0.331387152731185        0.001119931405601        0.001151195262445       -0.061795415531686
        0.333806037057690        0.000900595715347        0.000925817963282       -0.049336064878711
        0.336224921384195        0.000676131916144        0.000695127863339       -0.036775455284464
        0.338643805710700        0.000442461329848        0.000454931043933       -0.023895490077206
        0.341062690037205        0.000204579093122        0.000210362265231       -0.010970775573519
        0.343481574363710       -0.000040767746206       -0.000041923680047        0.002170951648913
        0.345900458690215       -0.000289314018083       -0.000297541472588        0.015299628036343
        0.348319343016720       -0.000543407081918       -0.000558905274156        0.028538783938988
        0.350738227343225       -0.000799602850165       -0.000822473288131        0.041706524381201
        0.353157111669730       -0.001059276587325       -0.001089660015498        0.054875542394021
        0.355575995996235       -0.001319884737373       -0.001357849286436        0.067914958575508
        0.357994880322740       -0.001581778872615       -0.001627402623029        0.080845354877825
        0.360413764649245       -0.001843382070300       -0.001896697858745        0.093588890173097
        0.362832648975750       -0.002103986831200       -0.002165006860993        0.106113613419478
        0.365251533302255       -0.002363034133669       -0.002431754568206        0.118395888073099
        0.367670417628760       -0.002618739301461       -0.002695104242465        0.130351667489542
        0.370089301955265       -0.002871596385517       -0.002955564442164        0.142011811441179
        0.372508186281770       -0.003118743473739       -0.003210189393661        0.153241467831416
        0.374927070608275       -0.003361745754139       -0.003460590156026        0.164125405918283
        0.377345954934780       -0.003596682535058       -0.003702730496726        0.174480090617465
        0.379764839261285       -0.003826190364159       -0.003939324463170        0.184442745552977
        0.382183723587790       -0.004045326890003       -0.004165283111391        0.193784073425527
        0.384602607914295       -0.004257781961280       -0.004384405121563        0.202691453168066
        0.387021492240800       -0.004457647168353       -0.004590605586222        0.210893497335338
        0.389440376567305       -0.004649629192694       -0.004788730492354        0.218624635190986
        0.391859260893810       -0.004826927134346       -0.004971774209500        0.225575753254381
        0.394278145220315       -0.004995209822382       -0.005145573939920        0.232024471263734
        0.396697029546820       -0.005146874554015       -0.005302296219221        0.237628935318214
        0.399115913873325       -0.005288479922316       -0.005448695147599        0.242705404118520
        0.401534798199830       -0.005411728059915       -0.005576218791947        0.246884809785876
        0.403953682526335       -0.005523978085172       -0.005692446479138        0.250516881172053
        0.406372566852840       -0.005616358079385       -0.005788232161598        0.253211314176915
        0.408791451179345       -0.005696922753375       -0.005871872562848        0.255345605962887
        0.411210335505850       -0.005756359963951       -0.005933765081722        0.256514548379327
        0.413629219832355       -0.005803300852850       -0.005982801353321        0.257117264836832
        0.416048104158860       -0.005828137572500       -0.006009070937825        0.256740226999595
        0.418466988485365       -0.005839946055726       -0.006021925033666        0.255797702074583
        0.420885872811870       -0.005828975716409       -0.006011302939020        0.253874570223433
        0.423304757138375       -0.005804605170434       -0.005986869258338        0.251393524846784
        0.425723641464880       -0.005757100066002       -0.005938576969174        0.247944618799143
        0.428142525791385       -0.005695991364615       -0.005876249401070        0.243952127861416
        0.430561410117890       -0.005611723338471       -0.005790020854933        0.239017967328118
        0.432980294444395       -0.005513823159212       -0.005689712661999        0.233561136217102
        0.435399178770900       -0.005393076830354       -0.005565809008927        0.227201918726245
        0.437818063097405       -0.005258848383610       -0.005427965099962        0.220347273667755
        0.440236947423910       -0.005102426615322       -0.005267181628235        0.212642071378074
        0.442655831750415       -0.004932852543913       -0.005092782887039        0.204474672109839
        0.445074716076920       -0.004742073992659       -0.004896447867287        0.195520359012090
        0.447493600403425       -0.004538651322191       -0.004687007328933        0.186142646491927
        0.449912484729930       -0.004315340036519       -0.004456972656969        0.176052571549473
        0.452331369056435       -0.004080067187099       -0.004214523452875        0.165582967387536
        0.454750253382940       -0.003826534354822       -0.003953147103777        0.154485392992236
        0.457169137709445       -0.003561890350489       -0.003680222230036        0.143056671040321
        0.459588022035950       -0.003280908414827       -0.003390342669876        0.131092999696685
        0.462006906362455       -0.002989824546411       -0.003089946767583        0.118850453666500
        0.464425790688960       -0.002684594026825       -0.002774849602652        0.106173269009960
        0.466844675015465       -0.002370418335841       -0.002450423072038        0.093272703072210
        0.469263559341970       -0.002044527796157       -0.002113800346062        0.080043654125440
        0.471682443668475       -0.001710982851342       -0.001769176245877        0.066649226113665
