#     time (fs)  |  E_x (eV/ang)  | E_y (eV/ang) | E_z (eV/ang)
     0.00000000     0.00000000     0.00000000     0.00000000
     0.00241888     0.03780809     0.00000000     0.03780809
     0.00483777     0.07555725     0.00000000     0.07555725
     0.00725665     0.11318863     0.00000000     0.11318863
     0.00967554     0.15064357     0.00000000     0.15064357
     0.01209442     0.18786369     0.00000000     0.18786369
     0.01451331     0.22479097     0.00000000     0.22479097
     0.01693219     0.26136784     0.00000000     0.26136784
     0.01935107     0.29753730     0.00000000     0.29753730
     0.02176996     0.33324296     0.00000000     0.33324296
     0.02418884     0.36842916     0.00000000     0.36842916
     0.02660773     0.40304105     0.00000000     0.40304105
     0.02902661     0.43702469     0.00000000     0.43702469
     0.03144550     0.47032710     0.00000000     0.47032710
     0.03386438     0.50289636     0.00000000     0.50289636
     0.03628326     0.53468171     0.00000000     0.53468171
     0.03870215     0.56563360     0.00000000     0.56563360
     0.04112103     0.59570379     0.00000000     0.59570379
     0.04353992     0.62484540     0.00000000     0.62484540
     0.04595880     0.65301300     0.00000000     0.65301300
     0.04837769     0.68016269     0.00000000     0.68016269
     0.05079657     0.70625214     0.00000000     0.70625214
     0.05321546     0.73124070     0.00000000     0.73124070
     0.05563434     0.75508940     0.00000000     0.75508940
     0.05805322     0.77776107     0.00000000     0.77776107
     0.06047211     0.79922037     0.00000000     0.79922037
     0.06289099     0.81943386     0.00000000     0.81943386
     0.06530988     0.83837001     0.00000000     0.83837001
     0.06772876     0.85599932     0.00000000     0.85599932
     0.07014765     0.87229430     0.00000000     0.87229430
     0.07256653     0.88722955     0.00000000     0.88722955
     0.07498541     0.90078180     0.00000000     0.90078180
     0.07740430     0.91292992     0.00000000     0.91292992
     0.07982318     0.92365496     0.00000000     0.92365496
     0.08224207     0.93294022     0.00000000     0.93294022
     0.08466095     0.94077121     0.00000000     0.94077121
     0.08707984     0.94713574     0.00000000     0.94713574
     0.08949872     0.95202387     0.00000000     0.95202387
     0.09191760     0.95542800     0.00000000     0.95542800
     0.09433649     0.95734281     0.00000000     0.95734281
     0.09675537     0.95776533     0.00000000     0.95776533
     0.09917426     0.95669488     0.00000000     0.95669488
     0.10159314     0.95413314     0.00000000     0.95413314
     0.10401203     0.95008411     0.00000000     0.95008411
     0.10643091     0.94455409     0.00000000     0.94455409
     0.10884979     0.93755171     0.00000000     0.93755171
     0.11126868     0.92908787     0.00000000     0.92908787
     0.11368756     0.91917578     0.00000000     0.91917578
     0.11610645     0.90783089     0.00000000     0.90783089
     0.11852533     0.89507087     0.00000000     0.89507087
     0.12094422     0.88091562     0.00000000     0.88091562
     0.12336310     0.86538721     0.00000000     0.86538721
     0.12578198     0.84850984     0.00000000     0.84850984
     0.12820087     0.83030981     0.00000000     0.83030981
     0.13061975     0.81081550     0.00000000     0.81081550
     0.13303864     0.79005730     0.00000000     0.79005730
     0.13545752     0.76806756     0.00000000     0.76806756
     0.13787641     0.74488056     0.00000000     0.74488056
     0.14029529     0.72053245     0.00000000     0.72053245
     0.14271418     0.69506117     0.00000000     0.69506117
     0.14513306     0.66850644     0.00000000     0.66850644
     0.14755194     0.64090965     0.00000000     0.64090965
     0.14997083     0.61231381     0.00000000     0.61231381
     0.15238971     0.58276349     0.00000000     0.58276349
     0.15480860     0.55230477     0.00000000     0.55230477
     0.15722748     0.52098512     0.00000000     0.52098512
     0.15964637     0.48885336     0.00000000     0.48885336
     0.16206525     0.45595958     0.00000000     0.45595958
     0.16448413     0.42235506     0.00000000     0.42235506
     0.16690302     0.38809216     0.00000000     0.38809216
     0.16932190     0.35322432     0.00000000     0.35322432
     0.17174079     0.31780587     0.00000000     0.31780587
     0.17415967     0.28189202     0.00000000     0.28189202
     0.17657856     0.24553876     0.00000000     0.24553876
     0.17899744     0.20880276     0.00000000     0.20880276
     0.18141632     0.17174128     0.00000000     0.17174128
     0.18383521     0.13441209     0.00000000     0.13441209
     0.18625409     0.09687338     0.00000000     0.09687338
     0.18867298     0.05918366     0.00000000     0.05918366
     0.19109186     0.02140169     0.00000000     0.02140169
     0.19351075    -0.01641364    -0.00000000    -0.01641364
     0.19592963    -0.05420339    -0.00000000    -0.05420339
     0.19834851    -0.09190865    -0.00000000    -0.09190865
     0.20076740    -0.12947064    -0.00000000    -0.12947064
     0.20318628    -0.16683081    -0.00000000    -0.16683081
     0.20560517    -0.20393092    -0.00000000    -0.20393092
     0.20802405    -0.24071315    -0.00000000    -0.24071315
     0.21044294    -0.27712016    -0.00000000    -0.27712016
     0.21286182    -0.31309519    -0.00000000    -0.31309519
     0.21528071    -0.34858218    -0.00000000    -0.34858218
     0.21769959    -0.38352579    -0.00000000    -0.38352579
     0.22011847    -0.41787157    -0.00000000    -0.41787157
     0.22253736    -0.45156597    -0.00000000    -0.45156597
     0.22495624    -0.48455648    -0.00000000    -0.48455648
     0.22737513    -0.51679166    -0.00000000    -0.51679166
     0.22979401    -0.54822127    -0.00000000    -0.54822127
     0.23221290    -0.57879631    -0.00000000    -0.57879631
     0.23463178    -0.60846913    -0.00000000    -0.60846913
     0.23705066    -0.63719348    -0.00000000    -0.63719348
     0.23946955    -0.66492457    -0.00000000    -0.66492457
     0.24188843    -0.69161918    -0.00000000    -0.69161918
     0.24430732    -0.71723569    -0.00000000    -0.71723569
     0.24672620    -0.74173419    -0.00000000    -0.74173419
     0.24914509    -0.76507647    -0.00000000    -0.76507647
     0.25156397    -0.78722616    -0.00000000    -0.78722616
     0.25398285    -0.80814872    -0.00000000    -0.80814872
     0.25640174    -0.82781155    -0.00000000    -0.82781155
     0.25882062    -0.84618399    -0.00000000    -0.84618399
     0.26123951    -0.86323740    -0.00000000    -0.86323740
     0.26365839    -0.87894521    -0.00000000    -0.87894521
     0.26607728    -0.89328291    -0.00000000    -0.89328291
     0.26849616    -0.90622818    -0.00000000    -0.90622818
     0.27091504    -0.91776082    -0.00000000    -0.91776082
     0.27333393    -0.92786286    -0.00000000    -0.92786286
     0.27575281    -0.93651856    -0.00000000    -0.93651856
     0.27817170    -0.94371442    -0.00000000    -0.94371442
     0.28059058    -0.94943922    -0.00000000    -0.94943922
     0.28300947    -0.95368403    -0.00000000    -0.95368403
     0.28542835    -0.95644226    -0.00000000    -0.95644226
     0.28784723    -0.95770958    -0.00000000    -0.95770958
     0.29026612    -0.95748404     0.00000000    -0.95748404
     0.29268500    -0.95576597     0.00000000    -0.95576597
     0.29510389    -0.95255807     0.00000000    -0.95255807
     0.29752277    -0.94786532     0.00000000    -0.94786532
     0.29994166    -0.94169504     0.00000000    -0.94169504
     0.30236054    -0.93405685     0.00000000    -0.93405685
     0.30477943    -0.92496267     0.00000000    -0.92496267
     0.30719831    -0.91442665     0.00000000    -0.91442665
     0.30961719    -0.90246524     0.00000000    -0.90246524
     0.31203608    -0.88909707     0.00000000    -0.88909707
     0.31445496    -0.87434297     0.00000000    -0.87434297
     0.31687385    -0.85822596     0.00000000    -0.85822596
     0.31929273    -0.84077115     0.00000000    -0.84077115
     0.32171162    -0.82200575     0.00000000    -0.82200575
     0.32413050    -0.80195902     0.00000000    -0.80195902
     0.32654938    -0.78066219     0.00000000    -0.78066219
     0.32896827    -0.75814847     0.00000000    -0.75814847
     0.33138715    -0.73445296     0.00000000    -0.73445296
     0.33380604    -0.70961259     0.00000000    -0.70961259
     0.33622492    -0.68366607     0.00000000    -0.68366607
     0.33864381    -0.65665386     0.00000000    -0.65665386
     0.34106269    -0.62861807     0.00000000    -0.62861807
     0.34348157    -0.59960238     0.00000000    -0.59960238
     0.34590046    -0.56965204     0.00000000    -0.56965204
     0.34831934    -0.53881373     0.00000000    -0.53881373
     0.35073823    -0.50713552     0.00000000    -0.50713552
     0.35315711    -0.47466679     0.00000000    -0.47466679
     0.35557600    -0.44145816     0.00000000    -0.44145816
     0.35799488    -0.40756138     0.00000000    -0.40756138
     0.36041376    -0.37302930     0.00000000    -0.37302930
     0.36283265    -0.33791574     0.00000000    -0.33791574
     0.36525153    -0.30227544     0.00000000    -0.30227544
     0.36767042    -0.26616395     0.00000000    -0.26616395
     0.37008930    -0.22963757     0.00000000    -0.22963757
     0.37250819    -0.19275323     0.00000000    -0.19275323
     0.37492707    -0.15556843     0.00000000    -0.15556843
     0.37734595    -0.11814114     0.00000000    -0.11814114
     0.37976484    -0.08052968     0.00000000    -0.08052968
     0.38218372    -0.04279269     0.00000000    -0.04279269
     0.38460261    -0.00498900     0.00000000    -0.00498900
     0.38702149     0.03282247     0.00000000     0.03282247
     0.38944038     0.07058277     0.00000000     0.07058277
     0.39185926     0.10823305     0.00000000     0.10823305
     0.39427815     0.14571462     0.00000000     0.14571462
     0.39669703     0.18296905     0.00000000     0.18296905
     0.39911591     0.21993826     0.00000000     0.21993826
     0.40153480     0.25656464     0.00000000     0.25656464
     0.40395368     0.29279109     0.00000000     0.29279109
     0.40637257     0.32856114     0.00000000     0.32856114
     0.40879145     0.36381902     0.00000000     0.36381902
     0.41121034     0.39850979     0.00000000     0.39850979
     0.41362922     0.43257937     0.00000000     0.43257937
     0.41604810     0.46597464     0.00000000     0.46597464
     0.41846699     0.49864355     0.00000000     0.49864355
     0.42088587     0.53053518     0.00000000     0.53053518
     0.42330476     0.56159982     0.00000000     0.56159982
     0.42572364     0.59178904     0.00000000     0.59178904
     0.42814253     0.62105578     0.00000000     0.62105578
     0.43056141     0.64935442     0.00000000     0.64935442
     0.43298029     0.67664085     0.00000000     0.67664085
     0.43539918     0.70287254     0.00000000     0.70287254
     0.43781806     0.72800860     0.00000000     0.72800860
     0.44023695     0.75200984     0.00000000     0.75200984
     0.44265583     0.77483885     0.00000000     0.77483885
     0.44507472     0.79646005     0.00000000     0.79646005
     0.44749360     0.81683973     0.00000000     0.81683973
     0.44991248     0.83594612     0.00000000     0.83594612
     0.45233137     0.85374945     0.00000000     0.85374945
     0.45475025     0.87022196     0.00000000     0.87022196
     0.45716914     0.88533797     0.00000000     0.88533797
     0.45958802     0.89907392     0.00000000     0.89907392
     0.46200691     0.91140841     0.00000000     0.91140841
     0.46442579     0.92232219     0.00000000     0.92232219
     0.46684468     0.93179826     0.00000000     0.93179826
     0.46926356     0.93982186     0.00000000     0.93982186
     0.47168244     0.94638046     0.00000000     0.94638046
     0.47410133     0.95146385     0.00000000     0.95146385
     0.47652021     0.95506411     0.00000000     0.95506411
     0.47893910     0.95717561     0.00000000     0.95717561
     0.48135798     0.95779508     0.00000000     0.95779508
     0.48377687     0.95692155     0.00000000     0.95692155
     0.48619575     0.95455637     0.00000000     0.95455637
     0.48861463     0.95070323     0.00000000     0.95070323
     0.49103352     0.94536814     0.00000000     0.94536814
     0.49345240     0.93855942     0.00000000     0.93855942
     0.49587129     0.93028768     0.00000000     0.93028768
     0.49829017     0.92056581     0.00000000     0.92056581
     0.50070906     0.90940897     0.00000000     0.90940897
     0.50312794     0.89683454     0.00000000     0.89683454
     0.50554682     0.88286214     0.00000000     0.88286214
     0.50796571     0.86751354     0.00000000     0.86751354
     0.51038459     0.85081266     0.00000000     0.85081266
     0.51280348     0.83278554     0.00000000     0.83278554
     0.51522236     0.81346028     0.00000000     0.81346028
     0.51764125     0.79286700     0.00000000     0.79286700
     0.52006013     0.77103781     0.00000000     0.77103781
     0.52247901     0.74800673     0.00000000     0.74800673
     0.52489790     0.72380966     0.00000000     0.72380966
     0.52731678     0.69848431     0.00000000     0.69848431
     0.52973567     0.67207018     0.00000000     0.67207018
     0.53215455     0.64460843     0.00000000     0.64460843
     0.53457344     0.61614186     0.00000000     0.61614186
     0.53699232     0.58671486     0.00000000     0.58671486
     0.53941120     0.55637329     0.00000000     0.55637329
     0.54183009     0.52516445     0.00000000     0.52516445
     0.54424897     0.49313698     0.00000000     0.49313698
     0.54666786     0.46034082     0.00000000     0.46034082
     0.54908674     0.42682708     0.00000000     0.42682708
     0.55150563     0.39264800     0.00000000     0.39264800
     0.55392451     0.35785687     0.00000000     0.35785687
     0.55634340     0.32250791     0.00000000     0.32250791
     0.55876228     0.28665623     0.00000000     0.28665623
     0.56118116     0.25035771     0.00000000     0.25035771
     0.56360005     0.21366894     0.00000000     0.21366894
     0.56601893     0.17664710     0.00000000     0.17664710
     0.56843782     0.13934990     0.00000000     0.13934990
     0.57085670     0.10183548     0.00000000     0.10183548
     0.57327559     0.06416233     0.00000000     0.06416233
     0.57569447     0.02638916     0.00000000     0.02638916
     0.57811335    -0.01142515    -0.00000000    -0.01142515
     0.58053224    -0.04922165    -0.00000000    -0.04922165
     0.58295112    -0.08694142    -0.00000000    -0.08694142
     0.58537001    -0.12452567    -0.00000000    -0.12452567
     0.58778889    -0.16191581    -0.00000000    -0.16191581
     0.59020778    -0.19905355    -0.00000000    -0.19905355
     0.59262666    -0.23588101    -0.00000000    -0.23588101
     0.59504554    -0.27234078    -0.00000000    -0.27234078
     0.59746443    -0.30837603    -0.00000000    -0.30837603
     0.59988331    -0.34393058    -0.00000000    -0.34393058
     0.60230220    -0.37894902    -0.00000000    -0.37894902
     0.60472108    -0.41337675    -0.00000000    -0.41337675
     0.60713997    -0.44716011    -0.00000000    -0.44716011
     0.60955885    -0.48024645    -0.00000000    -0.48024645
     0.61197773    -0.51258418    -0.00000000    -0.51258418
     0.61439662    -0.54412289    -0.00000000    -0.54412289
     0.61681550    -0.57481343    -0.00000000    -0.57481343
     0.61923439    -0.60460795    -0.00000000    -0.60460795
     0.62165327    -0.63346002    -0.00000000    -0.63346002
     0.62407216    -0.66132465    -0.00000000    -0.66132465
     0.62649104    -0.68815841    -0.00000000    -0.68815841
     0.62890992    -0.71391948    -0.00000000    -0.71391948
     0.63132881    -0.73856769    -0.00000000    -0.73856769
     0.63374769    -0.76206462    -0.00000000    -0.76206462
     0.63616658    -0.78437366    -0.00000000    -0.78437366
     0.63858546    -0.80546002    -0.00000000    -0.80546002
     0.64100435    -0.82529083    -0.00000000    -0.82529083
     0.64342323    -0.84383518    -0.00000000    -0.84383518
     0.64584212    -0.86106417    -0.00000000    -0.86106417
     0.64826100    -0.87695094    -0.00000000    -0.87695094
     0.65067988    -0.89147072    -0.00000000    -0.89147072
     0.65309877    -0.90460088    -0.00000000    -0.90460088
     0.65551765    -0.91632096    -0.00000000    -0.91632096
     0.65793654    -0.92661268    -0.00000000    -0.92661268
     0.66035542    -0.93546000    -0.00000000    -0.93546000
     0.66277431    -0.94284913    -0.00000000    -0.94284913
     0.66519319    -0.94876856    -0.00000000    -0.94876856
     0.66761207    -0.95320905    -0.00000000    -0.95320905
     0.67003096    -0.95616369    -0.00000000    -0.95616369
     0.67244984    -0.95762786    -0.00000000    -0.95762786
     0.67486873    -0.95759929     0.00000000    -0.95759929
     0.67728761    -0.95607801     0.00000000    -0.95607801
     0.67970650    -0.95306641     0.00000000    -0.95306641
     0.68212538    -0.94856918     0.00000000    -0.94856918
     0.68454426    -0.94259332     0.00000000    -0.94259332
     0.68696315    -0.93514815     0.00000000    -0.93514815
     0.68938203    -0.92624528     0.00000000    -0.92624528
     0.69180092    -0.91589858     0.00000000    -0.91589858
     0.69421980    -0.90412419     0.00000000    -0.90412419
     0.69663869    -0.89094045     0.00000000    -0.89094045
     0.69905757    -0.87636793     0.00000000    -0.87636793
     0.70147645    -0.86042932     0.00000000    -0.86042932
     0.70389534    -0.84314948     0.00000000    -0.84314948
     0.70631422    -0.82455535     0.00000000    -0.82455535
     0.70873311    -0.80467590     0.00000000    -0.80467590
     0.71115199    -0.78354213     0.00000000    -0.78354213
     0.71357088    -0.76118698     0.00000000    -0.76118698
     0.71598976    -0.73764530     0.00000000    -0.73764530
     0.71840864    -0.71295377     0.00000000    -0.71295377
     0.72082753    -0.68715091     0.00000000    -0.68715091
     0.72324641    -0.66027691     0.00000000    -0.66027691
     0.72566530    -0.63237368     0.00000000    -0.63237368
     0.72808418    -0.60348471     0.00000000    -0.60348471
     0.73050307    -0.57365503     0.00000000    -0.57365503
     0.73292195    -0.54293114     0.00000000    -0.54293114
     0.73534084    -0.51136093     0.00000000    -0.51136093
     0.73775972    -0.47899361     0.00000000    -0.47899361
     0.74017860    -0.44587965     0.00000000    -0.44587965
     0.74259749    -0.41207065     0.00000000    -0.41207065
     0.74501637    -0.37761931     0.00000000    -0.37761931
     0.74743526    -0.34257935     0.00000000    -0.34257935
     0.74985414    -0.30700537     0.00000000    -0.30700537
     0.75227303    -0.27095284     0.00000000    -0.27095284
     0.75469191    -0.23447795     0.00000000    -0.23447795
     0.75711079    -0.19763755     0.00000000    -0.19763755
     0.75952968    -0.16048908     0.00000000    -0.16048908
     0.76194856    -0.12309044     0.00000000    -0.12309044
     0.76436745    -0.08549992     0.00000000    -0.08549992
     0.76678633    -0.04777613     0.00000000    -0.04777613
     0.76920522    -0.00997787     0.00000000    -0.00997787
     0.77162410     0.02783595     0.00000000     0.02783595
     0.77404298     0.06560638     0.00000000     0.06560638
     0.77646187     0.10327454     0.00000000     0.10327454
     0.77888075     0.14078171     0.00000000     0.14078171
     0.78129964     0.17806944     0.00000000     0.17806944
     0.78371852     0.21507959     0.00000000     0.21507959
     0.78613741     0.25175448     0.00000000     0.25175448
