#           time (fs)    |     mu_x (e.angstrom)   |     mu_y (e.angstrom)   |     mu_z (e.angstrom)   |
        0.000000000000000       -0.000000000000000       -0.000000000000000        0.000000000000000
        0.002418884326505       -0.000000002588773        0.000000002139552        0.000021781124519
        0.004837768653010       -0.000000010349114        0.000000008554658        0.000043538585144
        0.007256652979515       -0.000000023155120        0.000000019139159        0.000064947224347
        0.009675537306020       -0.000000054972210        0.000000045440456        0.000115649086837
        0.012094421632525       -0.000000098384379        0.000000081323556        0.000165594522411
        0.014513305959030       -0.000000195034108        0.000000161216724        0.000273574883136
        0.016932190285535       -0.000000316243718        0.000000261407099        0.000380251162693
        0.019351074612040       -0.000000544186285        0.000000449828696        0.000572575072880
        0.021769958938545       -0.000000815575294        0.000000674157860        0.000762826508437
        0.024188843265050       -0.000001264691042        0.000001045403804        0.001064675469162
        0.026607727591555       -0.000001781352689        0.000001472476708        0.001363387422764
        0.029026611918060       -0.000002561853402        0.000002117649314        0.001797479250907
        0.031445496244565       -0.000003438305583        0.000002842127862        0.002227005019401
        0.033864380571070       -0.000004676896413        0.000003865963671        0.002813058423810
        0.036283264897575       -0.000006043067655        0.000004995249269        0.003392692449100
        0.038702149224080       -0.000007878452955        0.000006512404959        0.004146945933208
        0.041121033550585       -0.000009875038531        0.000008162800917        0.004892452813310
        0.043539917877090       -0.000012452881115        0.000010293688000        0.005827246638473
        0.045958802203595       -0.000015226182575        0.000012586135596        0.006750454504025
        0.048377686530100       -0.000018693639950        0.000015452406210        0.007873883414513
        0.050796570856605       -0.000022390014779        0.000018507899329        0.008982349174438
        0.053215455183110       -0.000026889987356        0.000022227694830        0.010297992412521
        0.055634339509615       -0.000031650046294        0.000026162486931        0.011594745171120
        0.058053223836120       -0.000037315281251        0.000030845568059        0.013101479010733
        0.060472108162625       -0.000043267978742        0.000035766291639        0.014584846636268
        0.062890992489130       -0.000050215178811        0.000041509173498        0.016276743260347
        0.065309876815635       -0.000057471946824        0.000047507996052        0.017940265659618
        0.067728761142140       -0.000065796035620        0.000054389212900        0.019806580717780
        0.070147645468645       -0.000074445112625        0.000061539154385        0.021639011868404
        0.072566529795150       -0.000084213807118        0.000069614778199        0.023664261507913
        0.074985414121655       -0.000094314912072        0.000077965313301        0.025649660747891
        0.077404298448160       -0.000105563748366        0.000087264846240        0.027813787341052
        0.079823182774665       -0.000117143244269        0.000096837910144        0.029931698844756
        0.082242067101170       -0.000129871195039        0.000107360664448        0.032210323072249
        0.084660951427675       -0.000142917877930        0.000118147173585        0.034436040885814
        0.087079835754180       -0.000157083688799        0.000129859243250        0.036800796310946
        0.089498720080685       -0.000171545326200        0.000141816232644        0.039105710811090
        0.091917604407190       -0.000187064684243        0.000154648149596        0.041524655626796
        0.094336488733695       -0.000202845412189        0.000167696616257        0.043876675836993
        0.096755373060200       -0.000219589042927        0.000181541770010        0.046314775115923
        0.099174257386705       -0.000236547713281        0.000195565297590        0.048678819992008
        0.101593141713210       -0.000254340483315        0.000210279181755        0.051098490547218
        0.104012026039715       -0.000272290033324        0.000225123405697        0.053437041156342
        0.106430910366220       -0.000290911114693        0.000240523737648        0.055798750048758
        0.108849794692725       -0.000309619009270        0.000255996692695        0.058072453532381
        0.111268679019230       -0.000328803139065        0.000271864434510        0.060335360358979
        0.113687563345735       -0.000347992913500        0.000287737808079        0.062503675708272
        0.116106447672240       -0.000367432758877        0.000303819097987        0.064626308084505
        0.118525331998745       -0.000386786666163        0.000319830393908        0.066648183075957
        0.120944216325250       -0.000406136281067        0.000335839378264        0.068589134194503
        0.123363100651755       -0.000425299024252        0.000351694976226        0.070423702340553
        0.125781984978260       -0.000444178360570        0.000367317512868        0.072142339148526
        0.128200869304765       -0.000462761867089        0.000382696589804        0.073749625214020
        0.130619753631270       -0.000480762279925        0.000397594774974        0.075206795600636
        0.133038637957775       -0.000498351452147        0.000412154036104        0.076548418118333
        0.135457522284280       -0.000515042117100        0.000425971489121        0.077707145539639
        0.137876406610785       -0.000531201471857        0.000439350638643        0.078747004821553
        0.140295290937290       -0.000546136611830        0.000451718461717        0.079573159000689
        0.142714175263795       -0.000560417701836        0.000463546326592        0.080278099379225
        0.145133059590300       -0.000573144502538        0.000474089641658        0.080741032100661
        0.147551943916805       -0.000585093994718        0.000483990846801        0.081081467535605
        0.149970828243310       -0.000595161071831        0.000492335797486        0.081154603089821
        0.152389712569815       -0.000604329341995        0.000499937877267        0.081105095834690
        0.154808596896320       -0.000611295609293        0.000505718972142        0.080766466355421
        0.157227481222825       -0.000617245699490        0.000510659791614        0.080306249079795
        0.159646365549330       -0.000620689476226        0.000513527455101        0.079538965838532
        0.162065249875835       -0.000623006250754        0.000515462805042        0.078652398441744
        0.164484134202340       -0.000622534438477        0.000515090994826        0.077445051113034
        0.166903018528845       -0.000620833767034        0.000513702217715        0.076122004428770
        0.169321902855350       -0.000616090920870        0.000509795962478        0.074468981403864
        0.171740787181855       -0.000610028712817        0.000504797462045        0.072705141074110
        0.174159671508360       -0.000600705830102        0.000497100170920        0.070606865067973
        0.176578555834865       -0.000589986742371        0.000488246656096        0.068403950046671
        0.178997440161370       -0.000575829592561        0.000476547051516        0.065867024501577
        0.181416324487875       -0.000560215235378        0.000463640366539        0.063232915920187
        0.183835208814380       -0.000541032059204        0.000447778895245        0.060270179043666
        0.186254093140885       -0.000520348528567        0.000430674291429        0.057218956517944
        0.188672977467390       -0.000496016941620        0.000410548874252        0.053849441187676
        0.191091861793895       -0.000470161515321        0.000389160585450        0.050401325050295
        0.193510746120400       -0.000440634461396        0.000364731575152        0.046650124255328
        0.195929630446905       -0.000409581306233        0.000339037568322        0.042831323643526
        0.198348514773410       -0.000374891918935        0.000310331796106        0.038729362589595
        0.200767399099915       -0.000338696670569        0.000280377580331        0.034571830779544
        0.203186283426420       -0.000298961917533        0.000247491385504        0.030155548244013
        0.205605167752925       -0.000257765011017        0.000213392777401        0.025696648080976
        0.208024052079430       -0.000213188013688        0.000176493930893        0.021007591036167
        0.210442936405935       -0.000167216661874        0.000138438691087        0.016289674737319
        0.212861820732440       -0.000118087604665        0.000097767141826        0.011374011645069
        0.215280705058945       -0.000067656343240        0.000056015416014        0.006443920624963
        0.217699589385450       -0.000014351908958        0.000011882809193        0.001351880115109
        0.220118473711955        0.000040138349520       -0.000033233672208       -0.003739628222895
        0.222537358038460        0.000097157056265       -0.000080445734500       -0.008954385365927
        0.224956242364965        0.000155221491628       -0.000128525722342       -0.014153275739550
        0.227375126691470        0.000215412545056       -0.000178368685215       -0.019434342267784
        0.229794011017975        0.000276486427682       -0.000228944744796       -0.024683995331211
        0.232212895344480        0.000339232190310       -0.000280907353505       -0.029972950939385
        0.234631779670985        0.000402676386209       -0.000333450443380       -0.035214902691524
        0.237050663997490        0.000467290084169       -0.000386964206135       -0.040452084387773
        0.239469548323995        0.000532398017070       -0.000440889457897       -0.045626800307093
        0.241888432650500        0.000598131710570       -0.000495335256817       -0.050752098382892
        0.244307316977005        0.000664137703242       -0.000550008888520       -0.055799770845376
        0.246726201303510        0.000730191554212       -0.000604724655028       -0.060753438649862
        0.249145085630015        0.000796280444110       -0.000659471929162       -0.065614795795355
        0.251563969956520        0.000861813157006       -0.000713761279382       -0.070338261280677
        0.253982854283025        0.000927131055470       -0.000767875395860       -0.074955375293333
        0.256401738609530        0.000991271342748       -0.000821017102407       -0.079392042253165
        0.258820622936035        0.001054937382904       -0.000873768898270       -0.083709125015350
        0.261239507262540        0.001116796284487       -0.000925027057686       -0.087805152087069
        0.263658391589045        0.001177915181380       -0.000975675368549       -0.091769326351264
        0.266077275915550        0.001236599047980       -0.001024310108743       -0.095474372188948
        0.268496160242055        0.001294274275670       -0.001072112632668       -0.099036406783440
        0.270915044568560        0.001348898209609       -0.001117391192469       -0.102304330326055
        0.273333928895065        0.001402245584599       -0.001161615685304       -0.105419328459380
        0.275752813221570        0.001451947119184       -0.001202823688748       -0.108208833905687
        0.278171697548075        0.001500108567894       -0.001242759311129       -0.110836864350817
        0.280590581874580        0.001544061357835       -0.001279212052632       -0.113112081296723
        0.283009466201085        0.001586218638296       -0.001314180683100       -0.115218743105732
        0.285428350527590        0.001623645929255       -0.001345234236358       -0.116949733286047
        0.287847234854095        0.001659034073907       -0.001374601562402       -0.118506645694207
        0.290266119180600        0.001689221719309       -0.001399663525705       -0.119669828882314
        0.292685003507105        0.001717141966928       -0.001422849725155       -0.120655039190546
        0.295103887833610        0.001739450764543       -0.001441389418914       -0.121233532028289
        0.297522772160115        0.001759282754825       -0.001457879247961       -0.121631835486408
        0.299941656486620        0.001773159884390       -0.001469437186560       -0.121615698323346
        0.302360540813125        0.001784372898558       -0.001478789297704       -0.121418865354425
        0.304779425139630        0.001789362254614       -0.001482985767234       -0.120805253550309
        0.307198309466135        0.001791525299285       -0.001484841090625       -0.120012161038579
        0.309617193792640        0.001787276530136       -0.001481383676461       -0.118805378604855
        0.312036078119145        0.001780067079383       -0.001475472711222       -0.117422043395116
        0.314454962445650        0.001766343163414       -0.001464162634685       -0.115633498299047
        0.316873846772155        0.001749554395013       -0.001450311512682       -0.113673012503381
        0.319292731098660        0.001726237608927       -0.001431048653802       -0.111321074410760
        0.321711615425165        0.001699783994811       -0.001409183856763       -0.108803443567031
        0.324130499751670        0.001666880154319       -0.001381970360330       -0.105913206234878
        0.326549384078175        0.001630801291720       -0.001352121991881       -0.102865092789665
        0.328968268404680        0.001588442173223       -0.001317064376051       -0.099468044717741
        0.331387152731185        0.001542904771412       -0.001279367912806       -0.095922420692973
        0.333806037057690        0.001491348652762       -0.001236677623276       -0.092056028981737
        0.336224921384195        0.001436646620073       -0.001191374093304       -0.088051743008892
        0.338643805710700        0.001376276909044       -0.001141366471060       -0.083758956631913
        0.341062690037205        0.001312829515556       -0.001088801033281       -0.079340221780559
        0.343481574363710        0.001244151465620       -0.001031892689719       -0.074668901642732
        0.345900458690215        0.001172499587878       -0.000972511613887       -0.069884711612973
        0.348319343016720        0.001096135131846       -0.000909216233319       -0.064886995814821
        0.350738227343225        0.001016935616883       -0.000843562306533       -0.059790478088788
        0.353157111669730        0.000933616379356       -0.000774484922242       -0.054522091735995
        0.355575995996235        0.000847634595560       -0.000703191334134       -0.049169807176539
        0.357994880322740        0.000758193174594       -0.000629021149772       -0.043689326848948
        0.360413764649245        0.000666293846184       -0.000552803934115       -0.038140525980677
        0.362832648975750        0.000571653482626       -0.000474305786963       -0.032508609594547
        0.365251533302255        0.000474789932332       -0.000393954921939       -0.026824456392115
        0.367670417628760        0.000375952711582       -0.000311959507830       -0.021103049644349
        0.370089301955265        0.000275154662104       -0.000228328800286       -0.015345824076553
        0.372508186281770        0.000173188417244       -0.000143721801515       -0.009597354942937
        0.374927070608275        0.000069548525908       -0.000057717701649       -0.003829645772524
        0.377345954934780       -0.000034427367116        0.000028572021506        0.001883781360022
        0.379764839261285       -0.000139768044734        0.000116002509690        0.007599881945462
        0.382183723587790       -0.000244597770184        0.000203015486453        0.013217281001428
        0.384602607914295       -0.000350465173347        0.000290897617369        0.018820969453045
        0.387021492240800       -0.000454972251377        0.000377656901663        0.024283244978128
        0.389440376567305       -0.000560175334209        0.000465001528175        0.029715773944451
        0.391859260893810       -0.000663178830851        0.000550526199476        0.034966460148973
        0.394278145220315       -0.000766525967401        0.000636343435731        0.040171870773990
        0.396697029546820       -0.000866856891404        0.000719662256049        0.045157827032697
        0.399115913873325       -0.000967172415387        0.000802975251360        0.050083635842067
        0.401534798199830       -0.001063690049101        0.000883140264841        0.054755689101640
        0.403953682526335       -0.001159830673239        0.000962998873580        0.059353520079499
        0.406372566852840       -0.001251438583248        0.001039098734775        0.063667045492605
        0.408791451179345       -0.001342309442440        0.001114592867550        0.067893198841098
        0.411210335505850       -0.001427970918222        0.001185765687499        0.071808630936897
        0.413629219832355       -0.001512540984124        0.001256038132717        0.075624581020258
        0.416048104158860       -0.001591293659658        0.001321483638624        0.079107848818523
        0.418466988485365       -0.001668610281758        0.001385742150880        0.082480664905496
        0.420885872811870       -0.001739579705697        0.001444732965114        0.085503545565851
        0.423304757138375       -0.001808782045576        0.001502261427530        0.088406230179432
        0.425723641464880       -0.001871193980338        0.001554153284918        0.090946617028724
        0.428142525791385       -0.001931525121354        0.001604321766406        0.093358357970457
        0.430561410117890       -0.001984716369971        0.001648562504943        0.095400440049306
        0.432980294444395       -0.002035533904039        0.001690836050135        0.097306773466392
        0.435399178770900       -0.002078961485735        0.001726973229115        0.098841125059850
        0.437818063097405       -0.002119746401778        0.001760919238161        0.100234008246652
        0.440236947423910       -0.002152994922570        0.001788606259002        0.101257588193531
        0.442655831750415       -0.002183358647361        0.001813900336184        0.102135382144952
        0.445074716076920       -0.002206145740214        0.001832900964582        0.102651444036279
        0.447493600403425       -0.002225835211250        0.001849331138481        0.103018807080095
        0.449912484729930       -0.002238014950934        0.001859522351517        0.103036722741164
        0.452331369056435       -0.002246915632233        0.001866991594883        0.102904417851840
        0.454750253382940       -0.002248479862554        0.001868364703110        0.102439417737511
        0.457169137709445       -0.002246616647311        0.001866891707268        0.101824037359052
        0.459588022035950       -0.002237694192310        0.001859551729078        0.100896872662828
        0.462006906362455       -0.002225230170667        0.001849269915300        0.099820486027574
        0.464425790688960       -0.002206083936046        0.001833433208740        0.098457018397445
        0.466844675015465       -0.002183317041222        0.001814587987062        0.096946747407644
        0.469263559341970       -0.002154339047174        0.001790578172279        0.095177473162900
        0.471682443668475       -0.002121696628277        0.001763522486462        0.093265003889668
