#           time (fs)       | force (atom_1) (H/b)   |  force (atom_2) (H/b)  |           ...          |  force (atom_N) (H/b)  |
        0.000000000000000       -0.000000000000000       -0.000000000000000       -0.001977038000788       -0.000000000000000       -0.000000000000000        0.001977038000788
        0.120944216325250        0.000016231307485       -0.000613999616578       -0.005470451182053       -0.000016231307485        0.000613999643034        0.005470451205995
        0.241888432650500        0.000049821772377       -0.000146862473636       -0.008381799872310       -0.000049821772377        0.000146862474182        0.008381799875258
        0.362832648975750        0.000085332148158        0.000181214645032       -0.008443730964709       -0.000085332148158       -0.000181214582732        0.008443731004106
        0.483776865301000        0.000131262227195        0.000008249199516       -0.009910423962805       -0.000131262227195       -0.000008249205650        0.009910423944919
        0.604721081626250        0.000208185691022       -0.000300807226458       -0.012526881326337       -0.000208185691022        0.000300807244253        0.012526881331700
        0.725665297951500        0.000297951489171       -0.000455862895998       -0.015903541998325       -0.000297951489171        0.000455862898185        0.015903542002912
        0.846609514276750        0.000362487686082        0.000365161423255       -0.015390447747563       -0.000362487686082       -0.000365161413230        0.015390447745770
        0.967553730602000        0.000435792611781        0.000056130799840       -0.016213947182109       -0.000435792611781       -0.000056130779611        0.016213947215438
        1.088497946927250        0.000554454006446        0.000096302191212       -0.018075568317928       -0.000554454006446       -0.000096302170300        0.018075568295096
        1.209442163252500        0.000666373982743       -0.000412128458553       -0.020390234213580       -0.000666373982743        0.000412128439672        0.020390234188500
        1.330386379577750        0.000724621695040        0.000296959024380       -0.019663688618446       -0.000724621695040       -0.000296959029542        0.019663688640352
        1.451330595903000        0.000794151487587        0.000046223031599       -0.019557851232157       -0.000794151487587       -0.000046222987055        0.019557851279361
        1.572274812228250        0.000917789840116        0.000251501577880       -0.020900048228554       -0.000917789840116       -0.000251501581099        0.020900048178840
        1.693219028553500        0.000990649807860        0.000084006005010       -0.020790689342432       -0.000990649807860       -0.000084006053971        0.020790689303287
        1.814163244878750        0.000994244140228        0.000200078761788       -0.019654892333088       -0.000994244140228       -0.000200078746394        0.019654892393921
        1.935107461204000        0.001023806839104        0.000024582445939       -0.018743929611195       -0.001023806839104       -0.000024582429802        0.018743929619429
        2.056051677529250        0.001104904945183       -0.000036952331394       -0.019784170082874       -0.001104904945183        0.000036952335319        0.019784170092736
        2.176995893854500        0.001088263692240        0.000508887056855       -0.017524777316136       -0.001088263692240       -0.000508887067131        0.017524777314745
        2.297940110179750        0.001001763506278        0.000206870533884       -0.015461050617247       -0.001001763506278       -0.000206870537996        0.015461050609462
        2.418884326505000        0.000966203671163        0.000133406660487       -0.013948707330407       -0.000966203671163       -0.000133406709777        0.013948707353107
        2.539828542830250        0.000974383173116       -0.000408466943601       -0.014508524698490       -0.000974383173116        0.000408467049073        0.014508524857751
        2.660772759155500        0.000864327033246        0.000438668369495       -0.011742412467783       -0.000864327033246       -0.000438668326451        0.011742412390234
        2.781716975480750        0.000679106547794        0.000190845003647       -0.008583021642811       -0.000679106547794       -0.000190845173391        0.008583021436163
        2.902661191806000        0.000566603282328        0.000157830516422       -0.006795949605818       -0.000566603282328       -0.000157830542360        0.006795949883149
        3.023605408131250        0.000503220773913       -0.000517233772306       -0.006490383028612       -0.000503220773913        0.000517234105726        0.006490383347538
        3.144549624456500        0.000335029217093       -0.000028300397595       -0.004597133960089       -0.000335029217093        0.000028300335045        0.004597133537903
        3.265493840781750        0.000066665150505        0.000150148162744       -0.000629870803320       -0.000066665150505       -0.000150148573510        0.000629870520053
        3.386438057107000       -0.000128491890938       -0.000074833240282        0.001220003996927        0.000128491890938        0.000074833486101       -0.001220003214724
        3.507382273432250       -0.000239441139139       -0.000450405025474        0.002272512929535        0.000239441139139        0.000450405587687       -0.002272512718617
        3.628326489757500       -0.000404432679307       -0.000637599012692        0.002793988953328        0.000404432679307        0.000637598573181       -0.002793989928356
        3.749270706082750       -0.000702534869268        0.000052501293144        0.006638085769751        0.000702534869268       -0.000052501808996       -0.006638085737162
        3.870214922408000       -0.000981102309031       -0.000379808782221        0.008848569711176        0.000981102309031        0.000379809496869       -0.008848568479805
        3.991159138733250       -0.001135433673936       -0.000426593292970        0.010228290783435        0.001135433673936        0.000426593779360       -0.010228291193192
        4.112103355058500       -0.001244424932759       -0.001106127209909        0.009769359033747        0.001244424932759        0.001106126209634       -0.009769360420272
        4.233047571383750       -0.001465741923597       -0.000271486912047        0.011944578354207        0.001465741923597        0.000271486645994       -0.011944577531861
        4.353991787709000       -0.001774991528254       -0.000550371177028        0.014573361304493        0.001774991528254        0.000550372338186       -0.014573360013936
        4.474936004034250       -0.002000496181931       -0.000568558108026        0.016025235578426        0.002000496181931        0.000568558084976       -0.016025236897780
        4.595880220359500       -0.002085225337275       -0.001175079971290        0.015846878590227        0.002085225337275        0.001175078599400       -0.015846879759628
        4.716824436684750       -0.002145336150560       -0.000798317384492        0.015550268997035        0.002145336150560        0.000798317776777       -0.015550267216003
        4.837768653010000       -0.002337588985390       -0.000635400979160        0.017493193795566        0.002337588985390        0.000635402309919       -0.017493193033826
        4.958712869335250       -0.002587133065088       -0.000904607196599        0.018439160961405        0.002587133065088        0.000904606439204       -0.018439163003137
        5.079657085660500       -0.002744065709096       -0.000887034944792        0.019593607095354        0.002744065709096        0.000887033723273       -0.019593607365741
        5.200601301985750       -0.002722484566938       -0.001147226831898        0.018287682357238        0.002722484566938        0.001147227954264       -0.018287680123556
        5.321545518311000       -0.002697660928239       -0.000736262550279        0.018472148253395        0.002697660928239        0.000736263510370       -0.018472148551822
        5.442489734636251       -0.002788674597786       -0.001305079547663        0.017883942762498        0.002788674597786        0.001305078175944       -0.017883944924955
        5.563433950961501       -0.002968172567105       -0.000683521578905        0.019307265534630        0.002968172567105        0.000683520977766       -0.019307264690498
        5.684378167286750       -0.003011261022994       -0.001039873036160        0.019151390375950        0.003011261022994        0.001039874502419       -0.019151388511134
        5.805322383612000       -0.002881037736853       -0.000797331830758        0.018169105387027        0.002881037736853        0.000797332029396       -0.018169106633004
        5.926266599937250       -0.002713594293861       -0.001416970278665        0.016151140644353        0.002713594293861        0.001416968844516       -0.016151142089809
        6.047210816262500       -0.002691609991255       -0.000836833578885        0.015543111992385        0.002691609991255        0.000836833745424       -0.015543110454797
        6.168155032587750       -0.002734722098555       -0.000652798103702        0.016399392340997        0.002734722098555        0.000652799366830       -0.016399391399911
        6.289099248913001       -0.002635863940400       -0.000768314735805        0.015305820674660        0.002635863940400        0.000768314307529       -0.015305822180204
        6.410043465238251       -0.002337664686443       -0.001058997344415        0.013263892915623        0.002337664686443        0.001058996438668       -0.013263893318105
        6.530987681563500       -0.002023924376111       -0.001049759034171        0.010276633658608        0.002023924376111        0.001049759590238       -0.010276632349291
        6.651931897888750       -0.001880162225018       -0.000272305988469        0.010444184140719        0.001880162225018        0.000272306607805       -0.010444184115575
        6.772876114214000       -0.001769430553737       -0.000603974412747        0.009435037001528        0.001769430553737        0.000603973851571       -0.009435038014055
        6.893820330539250       -0.001478900000119       -0.000500360578937        0.007984215675144        0.001478900000119        0.000500360320251       -0.007984215510566
        7.014764546864500       -0.000985213722744       -0.000933806624388        0.004227402766800        0.000985213722744        0.000933806917706       -0.004227402342554
        7.135708763189751       -0.000595768012765       -0.000012414549967        0.002732387547835        0.000595768012765        0.000012414608326       -0.002732387684279
        7.256652979515001       -0.000378476014611       -0.000174908984462        0.001842557216883        0.000378476014611        0.000174908874138       -0.001842557345273
        7.377597195840250       -0.000107477340970       -0.000028214229585        0.000508119082051        0.000107477340970        0.000028214233929       -0.000508119207141
        7.498541412165500        0.000441842292006       -0.000443029498962       -0.002683411632378       -0.000441842292006        0.000443029152913        0.002683411319377
        7.619485628490750        0.001000043476224        0.000118797782309       -0.005660520236841       -0.001000043476224       -0.000118797670594        0.005660520838976
        7.740429844816000        0.001307321791687        0.000494091506230       -0.006134830034168       -0.001307321791687       -0.000494090956542        0.006134830381500
        7.861374061141250        0.001567970610582        0.000384717293964       -0.007455915358078       -0.001567970610582       -0.000384717656132        0.007455914302785
        7.982318277466501        0.002109312061506        0.000235048337262       -0.009820178262449       -0.002109312061506       -0.000235049146076        0.009820178019240
        8.103262493791750        0.002720051431399        0.000203914375465       -0.013440939151229       -0.002720051431399       -0.000203913622163        0.013440940731163
        8.224206710117000        0.003002978404812        0.001076406579171       -0.013450937652095       -0.003002978404812       -0.001076405794905        0.013450937510929
        8.345150926442249        0.003206363854198        0.000830019641137       -0.014133248190375       -0.003206363854198       -0.000830020777754        0.014133246318379
        8.466095142767500        0.003690727854287        0.000897212685723       -0.015864343927389       -0.003690727854287       -0.000897213330454        0.015864344632849
        8.587039359092751        0.004219119468334        0.000464813868201       -0.018844364178834       -0.004219119468334       -0.000464812387052        0.018844366145456
        8.707983575418000        0.004339469805185        0.001256608127186       -0.018629686771473       -0.004339469805185       -0.001256607823437        0.018629685478380
        8.828927791743251        0.004418155088421        0.001130909668637       -0.018295596701576       -0.004418155088421       -0.001130911364060        0.018295594905646
        8.949872008068500        0.004779275710696        0.001258705416960       -0.019582052483794       -0.004779275710696       -0.001258705295551        0.019582054348038
        9.070816224393750        0.005067188628148        0.001018016138901       -0.020575126779637       -0.005067188628148       -0.001018014418150        0.020575128154600
        9.191760440718999        0.004910618284169        0.001165757523800       -0.019922153262541       -0.004910618284169       -0.001165758087897        0.019922151035695
        9.312704657044250        0.004807629476153        0.001128576251035       -0.018795902341732       -0.004807629476153       -0.001128577799783        0.018795901552287
        9.433648873369501        0.004969815536619        0.001025983888865       -0.019790978726515       -0.004969815536619       -0.001025982967494        0.019790981040204
        9.554593089694750        0.004910063653908        0.001414144783627       -0.018575491648118       -0.004910063653908       -0.001414143547711        0.018575491814498
        9.675537306020001        0.004445625150702        0.001041829465224       -0.016836594973862       -0.004445625150702       -0.001041830635496        0.016836592759070
        9.796481522345250        0.004142454243447        0.000972281200461       -0.015211169799234       -0.004142454243447       -0.000972282004346        0.015211170170587
        9.917425738670500        0.004088057748211        0.000439125537424       -0.015810662090759       -0.004088057748211       -0.000439124389091        0.015810663824080
       10.038369954995749        0.003732688795490        0.001151560625733       -0.013716536626171       -0.003732688795490       -0.001151560228692        0.013716535909295
       10.159314171321000        0.003031132568419        0.000806120246690       -0.010715236917146       -0.003031132568419       -0.000806121271365        0.010715235670170
       10.280258387646251        0.002549315252183        0.000654486745416       -0.008837671654575       -0.002549315252183       -0.000654486814269        0.008837672394996
       10.401202603971500        0.002323748043148       -0.000037364685892       -0.008638263399541       -0.002323748043148        0.000037365319658        0.008638264005475
       10.522146820296751        0.001824067860082        0.000348234660251       -0.007056182040197       -0.001824067860082       -0.000348234741591        0.007056181492411
       10.643091036622000        0.000990826413107        0.000423801619896       -0.003224785347852       -0.000990826413107       -0.000423801892964        0.003224785159675
       10.764035252947250        0.000358855686273        0.000071654999945       -0.001261872504625       -0.000358855686273       -0.000071654999477        0.001261872506114
       10.884979469272501        0.000035857683304       -0.000363744225737       -0.000257787443635       -0.000035857683304        0.000363744037113        0.000257787372987
       11.005923685597750       -0.000430774199027       -0.000613943822853        0.000286599976570        0.000430774199027        0.000613944072267       -0.000286599423534
       11.126867901923001       -0.001246888170775       -0.000056039936207        0.003997957176032        0.001246888170775        0.000056040340540       -0.003997957201958
       11.247812118248250       -0.001997391179290       -0.000576644971282        0.006247926990813        0.001997391179290        0.000576644281963       -0.006247928178077
       11.368756334573501       -0.002399847838401       -0.000715537251391        0.007647005598513        0.002399847838401        0.000715536718670       -0.007647005148687
       11.489700550898750       -0.002704675153044       -0.001404649404518        0.007439410225668        0.002704675153044        0.001404650610205       -0.007439408555028
       11.610644767224001       -0.003281582808978       -0.000691168545501        0.009675813744038        0.003281582808978        0.000691168892016       -0.009675814817812
       11.731588983549251       -0.004020567082836       -0.001022088996977        0.012272906144181        0.004020567082836        0.001022087378999       -0.012272907941741
       11.852533199874500       -0.004558758404431       -0.001156207951407        0.013764540361059        0.004558758404431        0.001156207985334       -0.013764538465498
       11.973477416199751       -0.004755268817113       -0.001775403493753        0.013739065893118        0.004755268817113        0.001775405515669       -0.013739064170549
       12.094421632525000       -0.004933494253136       -0.001438149457225        0.013745530182180        0.004933494253136        0.001438148862769       -0.013745532877543
       12.215365848850251       -0.005359089279344       -0.001270000705377        0.015766820219506        0.005359089279344        0.001269998626061       -0.015766821408637
       12.336310065175500       -0.005952302654592       -0.001633315653109        0.016929739254993        0.005952302654592        0.001633316860486       -0.016929736002298
       12.457254281500751       -0.006247129811221       -0.001712404015120        0.017944933626220        0.006247129811221        0.001712405984619       -0.017944933191667
       12.578198497826001       -0.006197946064634       -0.001949297541259        0.016882749352067        0.006197946064634        0.001949295707206       -0.016882753000507
       12.699142714151250       -0.006113735382519       -0.001471924136021        0.017245935377055        0.006113735382519        0.001471922552497       -0.017245934882937
       12.820086930476501       -0.006391813725413       -0.002038459846063        0.017188852564754        0.006391813725413        0.002038462123322       -0.017188848976097
       12.941031146801750       -0.006734064406695       -0.001556056924642        0.018492936861972        0.006734064406695        0.001556057933964       -0.018492938282319
       13.061975363127001       -0.006787247941743       -0.001898743034714        0.018379843211199        0.006787247941743        0.001898740524790       -0.018379846402176
       13.182919579452250       -0.006455605012236       -0.001596164075970        0.017516145880000        0.006455605012236        0.001596163730371       -0.017516143703914
       13.303863795777501       -0.006181258511561       -0.002133419041562        0.016071326203969        0.006181258511561        0.002133421543823       -0.016071323683086
       13.424808012102751       -0.006147702555685       -0.001607599935385        0.015657607211384        0.006147702555685        0.001607599641907       -0.015657609912032
