#           time (fs)    |     mu_x (e.angstrom)   |     mu_y (e.angstrom)   |     mu_z (e.angstrom)   |
        0.000000000000000       -0.000000000000000       -0.000000000000000        0.000000000000000
        0.002418884326505        0.000000002567274       -0.000000000799390       -0.000054000249949
        0.004837768653010        0.000000010270172       -0.000000003197780       -0.000108008454388
        0.007256652979515        0.000000022984389       -0.000000007156638       -0.000161140128611
        0.009675537306020        0.000000040753880       -0.000000012689363       -0.000214281751031
        0.012094421632525        0.000000063166676       -0.000000019668080       -0.000265690881738
        0.014513305959030        0.000000090474076       -0.000000028170517       -0.000317113915356
        0.016932190285535        0.000000121822878       -0.000000037931642       -0.000365978689951
        0.019351074612040        0.000000157828842       -0.000000049142431       -0.000414863211039
        0.021769958938545        0.000000197057717       -0.000000061357159       -0.000460407240795
        0.024188843265050        0.000000240634308       -0.000000074925066       -0.000505978639339
        0.026607727591555        0.000000286422000       -0.000000089181965       -0.000547483484556
        0.029026611918060        0.000000336181856       -0.000000104674969       -0.000589024953000
        0.031445496244565        0.000000386976400       -0.000000120490758       -0.000625841701226
        0.033864380571070        0.000000441308376       -0.000000137407147       -0.000662705778433
        0.036283264897575        0.000000495367519       -0.000000154239289       -0.000694265487368
        0.038702149224080        0.000000552478013       -0.000000172020532       -0.000725884469958
        0.041121033550585        0.000000607914560       -0.000000189281357       -0.000751707304831
        0.043539917877090        0.000000665873628       -0.000000207326474       -0.000777602356187
        0.045958802203595        0.000000720704704       -0.000000224398526       -0.000797305272314
        0.048377686530100        0.000000777495946       -0.000000242079626       -0.000817094080415
        0.050796570856605        0.000000829695090       -0.000000258331894       -0.000830396925074
        0.053215455183110        0.000000883268205       -0.000000275010551       -0.000843799783692
        0.055634339509615        0.000000930819131       -0.000000289815216       -0.000850529716889
        0.058053223836120        0.000000979143978       -0.000000304859311       -0.000857373930078
        0.060472108162625        0.000001020094794       -0.000000317608638       -0.000857468090977
        0.062890992489130        0.000001061215749       -0.000000330409292       -0.000857690627902
        0.065309876815635        0.000001093732417       -0.000000340532284       -0.000851197002054
        0.067728761142140        0.000001125821789       -0.000000350520493       -0.000844845357520
        0.070147645468645        0.000001148239604       -0.000000357498920       -0.000831921829224
        0.072566529795150        0.000001169648909       -0.000000364161528       -0.000819153074381
        0.074985414121655        0.000001180520798       -0.000000367544968       -0.000800064677976
        0.077404298448160        0.000001189828689       -0.000000370439582       -0.000781142715085
        0.079823182774665        0.000001187969214       -0.000000369859118       -0.000756257128296
        0.082242067101170        0.000001184024953       -0.000000368627645       -0.000731548192673
        0.084660951427675        0.000001168548947       -0.000000363807883       -0.000701329543816
        0.087079835754180        0.000001150510365       -0.000000358188332       -0.000671296024675
        0.089498720080685        0.000001120865258       -0.000000348957459       -0.000636297113051
        0.091917604407190        0.000001088230266       -0.000000338793743       -0.000601489792454
        0.094336488733695        0.000001044221273       -0.000000325091350       -0.000562342847278
        0.096755373060200        0.000000996852114       -0.000000310340821       -0.000523391682298
        0.099174257386705        0.000000938659592       -0.000000292223292       -0.000480797809521
        0.101593141713210        0.000000876799151       -0.000000272961797       -0.000438401406685
        0.104012026039715        0.000000804987600       -0.000000250605091       -0.000393118894647
        0.106430910366220        0.000000729267281       -0.000000227029411       -0.000348032847258
        0.108849794692725        0.000000644785627       -0.000000200729136       -0.000300864521035
        0.111268679019230        0.000000556224429       -0.000000173156678       -0.000253888798800
        0.113687563345735        0.000000460397414       -0.000000143325391       -0.000205668628900
        0.116106447672240        0.000000360392072       -0.000000112191105       -0.000157634225042
        0.118525331998745        0.000000254902749       -0.000000079352851       -0.000109213408625
        0.120944216325250        0.000000145208955       -0.000000045203372       -0.000060968462146
        0.123363100651755        0.000000032072489       -0.000000009985522       -0.000013201203910
        0.125781984978260       -0.000000085222589        0.000000026529392        0.000034403176446
        0.128200869304765       -0.000000203693431        0.000000063406893        0.000080673951273
        0.130619753631270       -0.000000326206929        0.000000101545500        0.000126797929508
        0.133038637957775       -0.000000447444044        0.000000139283286        0.000170754696121
        0.135457522284280       -0.000000572540892        0.000000178225397        0.000214583784604
        0.137876406610785       -0.000000693770118        0.000000215960017        0.000255448141865
        0.140295290937290       -0.000000818613487        0.000000254822691        0.000296206879096
        0.142714175263795       -0.000000936910005        0.000000291643839        0.000333252649505
        0.145133059590300       -0.000001058517795        0.000000329498956        0.000370217655103
        0.147551943916805       -0.000001170866602        0.000000364468290        0.000402783145688
        0.149970828243310       -0.000001286172913        0.000000400361669        0.000435295337462
        0.152389712569815       -0.000001389533214        0.000000432532831        0.000462794559119
        0.154808596896320       -0.000001495453610        0.000000465504529        0.000490270330399
        0.157227481222825       -0.000001586825847        0.000000493943996        0.000512202989819
        0.159646365549330       -0.000001680325140        0.000000523049393        0.000534144161831
        0.162065249875835       -0.000001756819322        0.000000546857729        0.000550104259917
        0.164484134202340       -0.000001834980500        0.000000571188964        0.000566106643678
        0.166903018528845       -0.000001893884415        0.000000589522039        0.000575789536766
        0.169321902855350       -0.000001953977317        0.000000608229376        0.000585549961406
        0.171740787181855       -0.000001992823213        0.000000620319108        0.000588757766505
        0.174159671508360       -0.000002032371496        0.000000632631770        0.000592079455732
        0.176578555834865       -0.000002048999793        0.000000637805954        0.000588724707821
        0.178997440161370       -0.000002065844780        0.000000643051992        0.000585520913035
        0.181416324487875       -0.000002058463420        0.000000640752768        0.000575628410864
        0.183835208814380       -0.000002050823410        0.000000638377523        0.000565924237780
        0.186254093140885       -0.000002018061510        0.000000628178081        0.000549631044141
        0.188672977467390       -0.000001984585232        0.000000617760827        0.000533563439210
        0.191091861793895       -0.000001925539790        0.000000599379952        0.000511117031749
        0.193510746120400       -0.000001865352742        0.000000580648330        0.000488932924707
        0.195929630446905       -0.000001779627260        0.000000553962437        0.000460687523601
        0.198348514773410       -0.000001692369811        0.000000526804328        0.000432740152671
        0.200767399099915       -0.000001580103833        0.000000491856672        0.000399151281363
        0.203186283426420       -0.000001465960097        0.000000456329199        0.000365894757382
        0.205605167752925       -0.000001327848828        0.000000413335997        0.000327512121614
        0.208024052079430       -0.000001187565481        0.000000369671402        0.000289494316361
        0.210442936405935       -0.000001024868830        0.000000319024665        0.000246953114393
        0.212861820732440       -0.000000859763227        0.000000267632849        0.000204806985925
        0.215280705058945       -0.000000674303810        0.000000209899775        0.000158817788767
        0.217699589385450       -0.000000486260956        0.000000151367372        0.000113251282449
        0.220118473711955       -0.000000280410796        0.000000087286224        0.000064588646578
        0.222537358038460       -0.000000071868937        0.000000022372128        0.000016373334035
        0.224956242364965        0.000000151475162       -0.000000047155429       -0.000034136669832
        0.227375126691470        0.000000377550356       -0.000000117528094       -0.000084178030594
        0.229794011017975        0.000000615002580       -0.000000191448117       -0.000135671171013
        0.232212895344480        0.000000855155025       -0.000000266203512       -0.000186677953032
        0.234631779670985        0.000001102887070       -0.000000343324260       -0.000238265857115
        0.237050663997490        0.000001353218041       -0.000000421248705       -0.000289353543415
        0.239469548323995        0.000001607015738       -0.000000500258272       -0.000340138154030
        0.241888432650500        0.000001863241772       -0.000000580018274       -0.000390412750754
        0.244307316977005        0.000002118570992       -0.000000659505113       -0.000439500986179
        0.246726201303510        0.000002376091042       -0.000000739668280       -0.000488073635033
        0.249145085630015        0.000002628171847       -0.000000818144292       -0.000534592011802
        0.251563969956520        0.000002882142645       -0.000000897202804       -0.000580593563194
        0.253982854283025        0.000003126030452       -0.000000973128620       -0.000623702542997
        0.256401738609530        0.000003371448841       -0.000001049524873       -0.000666297851425
        0.258820622936035        0.000003602121235       -0.000001121336890       -0.000705205676975
        0.261239507262540        0.000003833912054       -0.000001193490868       -0.000743607384274
        0.263658391589045        0.000004046359724       -0.000001259629573       -0.000777583176944
        0.266077275915550        0.000004259467730       -0.000001325967472       -0.000811064756955
        0.268496160242055        0.000004448787887       -0.000001384906530       -0.000839450660638
        0.270915044568560        0.000004638272047       -0.000001443890125       -0.000867358510473
        0.273333928895065        0.000004799762624       -0.000001494165716       -0.000889580681294
        0.275752813221570        0.000004960891053       -0.000001544321918       -0.000911345059590
        0.278171697548075        0.000005090143899       -0.000001584561751       -0.000926923319626
        0.280590581874580        0.000005218487658       -0.000001624511813       -0.000942067950678
        0.283009466201085        0.000005311478953       -0.000001653463272       -0.000950623945348
        0.285428350527590        0.000005403002909       -0.000001681951072       -0.000958774129496
        0.287847234854095        0.000005456179015       -0.000001698507942       -0.000960037852486
        0.290266119180600        0.000005507327981       -0.000001714426792       -0.000960926947302
        0.292685003507105        0.000005517685000       -0.000001717654015       -0.000954741523376
        0.295103887833610        0.000005525463417       -0.000001720071464       -0.000948215686627
        0.297522772160115        0.000005490618816       -0.000001709227431       -0.000934540330967
        0.299941656486620        0.000005452662335       -0.000001697407533       -0.000920561444613
        0.302360540813125        0.000005370917101       -0.000001671963420       -0.000899472547074
        0.304779425139630        0.000005285554523       -0.000001645386009       -0.000878119271178
        0.307198309466135        0.000005155944459       -0.000001605041737       -0.000849809584447
        0.309617193792640        0.000005022248661       -0.000001563418270       -0.000821276520458
        0.312036078119145        0.000004844583617       -0.000001508114708       -0.000786052462118
        0.314454962445650        0.000004662410243       -0.000001451400299       -0.000750647435891
        0.316873846772155        0.000004437300259       -0.000001381327395       -0.000708924545324
        0.319292731098660        0.000004207313190       -0.000001309728741       -0.000667064051105
        0.321711615425165        0.000003936180774       -0.000001225329337       -0.000619360672438
        0.324130499751670        0.000003659863583       -0.000001139308279       -0.000571563549218
        0.326549384078175        0.000003344941566       -0.000001041277446       -0.000518492840722
        0.328968268404680        0.000003024594435       -0.000000941550011       -0.000465372281490
        0.331387152731185        0.000002668909122       -0.000000830829807       -0.000407632679428
        0.333806037057690        0.000002307630946       -0.000000718360643       -0.000349886701309
        0.336224921384195        0.000001914970538       -0.000000596130288       -0.000288250991757
        0.338643805710700        0.000001516626211       -0.000000472122487       -0.000226651520489
        0.341062690037205        0.000001091494752       -0.000000339784039       -0.000161954695725
        0.343481574363710        0.000000660667910       -0.000000205664436       -0.000097335440894
        0.345900458690215        0.000000208225280       -0.000000064824121       -0.000030461537140
        0.348319343016720       -0.000000249842960        0.000000077775761        0.000036295145317
        0.350738227343225       -0.000000723854203        0.000000225330311        0.000104427015014
        0.353157111669730       -0.000001203339686        0.000000374597422        0.000172404059627
        0.355575995996235       -0.000001692679571        0.000000526923698        0.000240854250057
        0.357994880322740       -0.000002187261652        0.000000680890398        0.000309114391084
        0.360413764649245       -0.000002685288869        0.000000835920913        0.000376937610006
        0.362832648975750       -0.000003188247754        0.000000992495260        0.000444538226584
        0.365251533302255       -0.000003688025002        0.000001148070339        0.000510798517282
        0.367670417628760       -0.000004192348335        0.000001305069266        0.000576806572044
        0.370089301955265       -0.000004686755235        0.000001458972193        0.000640592148388
        0.372508186281770       -0.000005185252181        0.000001614157029        0.000704098975286
        0.374927070608275       -0.000005667103851        0.000001764150964        0.000764536666456
        0.377345954934780       -0.000006152524768        0.000001915264685        0.000824672365650
        0.379764839261285       -0.000006614694029        0.000002059130717        0.000880941433788
        0.382183723587790       -0.000007079853667        0.000002203936319        0.000936888637658
        0.384602607914295       -0.000007515394729        0.000002339511981        0.000988233741745
        0.387021492240800       -0.000007953296805        0.000002475831274        0.001039240526093
        0.389440376567305       -0.000008355568227        0.000002601048846        0.001084983619100
        0.391859260893810       -0.000008759529142        0.000002726800986        0.001130375347428
        0.394278145220315       -0.000009122313835        0.000002839724871        0.001169926311100
        0.396697029546820       -0.000009486083285        0.000002952963933        0.001209116217131
        0.399115913873325       -0.000009803703311        0.000003051826420        0.001241982059316
        0.401534798199830       -0.000010121579559        0.000003150777309        0.001274480393503
        0.403953682526335       -0.000010389003570        0.000003234012040        0.001300272856424
        0.406372566852840       -0.000010655941186        0.000003317104051        0.001325694445628
        0.408791451179345       -0.000010868882406        0.000003383376547        0.001344135899482
        0.411210335505850       -0.000011080590395        0.000003449273933        0.001362205995008
        0.413629219832355       -0.000011235593207        0.000003497508567        0.001373133519451
        0.416048104158860       -0.000011388621573        0.000003545137504        0.001383691836694
        0.418466988485365       -0.000011483134923        0.000003574540360        0.001387059422509
        0.420885872811870       -0.000011574947889        0.000003603111745        0.001390062305209
        0.423304757138375       -0.000011607383939        0.000003613188880        0.001385941139435
        0.425723641464880       -0.000011636418257        0.000003622216487        0.001381461812417
        0.428142525791385       -0.000011606194951        0.000003612787180        0.001370038641795
        0.430561410117890       -0.000011571901967        0.000003602100743        0.001358265547595
        0.432980294444395       -0.000011479468446        0.000003573305390        0.001339839146943
        0.435399178770900       -0.000011382338877        0.000003543058300        0.001321072393376
        0.437818063097405       -0.000011229182958        0.000003495360721        0.001296048196829
        0.440236947423910       -0.000011070753595        0.000003446032089        0.001270694173805
        0.442655831750415       -0.000010859390861        0.000003380216101        0.001239577157315
        0.445074716076920       -0.000010642232765        0.000003312607048        0.001208141411538
        0.447493600403425       -0.000010376177106        0.000003229767260        0.001171527344020
        0.449912484729930       -0.000010103865161        0.000003144991403        0.001134605829135
        0.452331369056435       -0.000009787580970        0.000003046518299        0.001093171036776
        0.454750253382940       -0.000009464645001        0.000002945986492        0.001051439883519
        0.457169137709445       -0.000009103481547        0.000002833545952        0.001005929696545
        0.459588022035950       -0.000008735339549        0.000002718945462        0.000960133672124
        0.462006906362455       -0.000008335448376        0.000002594453017        0.000911349745286
        0.464425790688960       -0.000007928322732        0.000002467721399        0.000862289593108
        0.466844675015465       -0.000007496559271        0.000002333311562        0.000811076310049
        0.469263559341970       -0.000007057377155        0.000002196605624        0.000759595179641
        0.471682443668475       -0.000006601188020        0.000002054596773        0.000706825366680
