#           time (fs)       | force (atom_1) (H/b)   |  force (atom_2) (H/b)  |           ...          |  force (atom_N) (H/b)  |
        0.000000000000000       -0.000000000000000       -0.000000000000000       -0.001977038000788       -0.000000000000000       -0.000000000000000        0.001977038000788
        0.120944216325250       -0.000001003849111       -0.000009065512601       -0.001244980668002        0.000001003849111        0.000009065512744        0.001244980668002
        0.241888432650500       -0.000000799272808       -0.000041540089083       -0.000496306091371        0.000000799272808        0.000041540089417        0.000496306091371
        0.362832648975750        0.000000626798273       -0.000016633589797        0.000259829921656       -0.000000626798273        0.000016633590089       -0.000259829921656
        0.483776865301000        0.000003267376297        0.000015474520859        0.001017223759562       -0.000003267376297       -0.000015474520911       -0.001017223759562
        0.604721081626250        0.000007077927644       -0.000022667052131        0.001765253168494       -0.000007077927644        0.000022667051760       -0.001765253168494
        0.725665297951500        0.000012011903552       -0.000036991305686        0.002499884033707       -0.000012011903552        0.000036991305256       -0.002499884033707
        0.846609514276750        0.000017977237961        0.000044512494525        0.003211175821030       -0.000017977237961       -0.000044512494759       -0.003211175821030
        0.967553730602000        0.000024876493172        0.000110002441095        0.003893200443799       -0.000024876493172       -0.000110002441050       -0.003893200443799
        1.088497946927250        0.000032588615239        0.000044954256703        0.004539259702796       -0.000032588615239       -0.000044954256720       -0.004539259702796
        1.209442163252500        0.000040978902065        0.000034970607847        0.005143500327751       -0.000040978902065       -0.000034970607900       -0.005143500327751
        1.330386379577750        0.000049903293350        0.000197861018837        0.005701011064970       -0.000049903293350       -0.000197861018935       -0.005701011064970
        1.451330595903000        0.000059219927828        0.000256543425488        0.006208639165085       -0.000059219927828       -0.000256543425297       -0.006208639165085
        1.572274812228250        0.000068714720149        0.000139540294401        0.006657110160261       -0.000068714720149       -0.000139540293732       -0.006657110160261
        1.693219028553500        0.000078276208029        0.000168862137320        0.007048933413784       -0.000078276208029       -0.000168862136638       -0.007048933413784
        1.814163244878750        0.000087718891191        0.000385238645356        0.007379664237897       -0.000087718891191       -0.000385238645060       -0.007379664237897
        1.935107461204000        0.000096807885094        0.000403505360705        0.007642004925252       -0.000096807885094       -0.000403505361218       -0.007642004925252
        2.056051677529250        0.000105392407921        0.000228659925582        0.007836566245605       -0.000105392407921       -0.000228659926715       -0.007836566245605
        2.176995893854500        0.000113343534873        0.000315292978173        0.007965332493808       -0.000113343534873       -0.000315292979100       -0.007965332493808
        2.297940110179750        0.000120433779957        0.000551263204352        0.008023293040653       -0.000120433779957       -0.000551263204587       -0.008023293040653
        2.418884326505000        0.000126532859879        0.000487163063541        0.008012579609642       -0.000126532859879       -0.000487163062956       -0.008012579609642
        2.539828542830250        0.000131417149538        0.000287229314547        0.007929296457562       -0.000131417149538       -0.000287229313644       -0.007929296457562
        2.660772759155500        0.000135017674520        0.000395855439263        0.007779177919047       -0.000135017674520       -0.000395855438611       -0.007779177919047
        2.781716975480750        0.000137248776949        0.000646303872238        0.007566074422480       -0.000137248776949       -0.000646303872183       -0.007566074422480
        2.902661191806000        0.000137760530875        0.000487327398866        0.007279267189227       -0.000137760530875       -0.000487327398983       -0.007279267189227
        3.023605408131250        0.000136530891949        0.000212555603655        0.006926420478380       -0.000136530891949       -0.000212555603660       -0.006926420478380
        3.144549624456500        0.000133718959802        0.000423751596876        0.006522905774829       -0.000133718959802       -0.000423751596963       -0.006522905774829
        3.265493840781750        0.000128948214552        0.000610721881246        0.006056740500197       -0.000128948214552       -0.000610721881257       -0.006056740500197
        3.386438057107000        0.000122202568400        0.000306514937853        0.005533894150714       -0.000122202568400       -0.000306514938783       -0.005533894150714
        3.507382273432250        0.000113580923008        0.000076331297466        0.004964785266606       -0.000113580923008       -0.000076331298343       -0.004964785266606
        3.628326489757500        0.000103050422276        0.000284902678275        0.004352790525046       -0.000103050422276       -0.000284902678550       -0.004352790525046
        3.749270706082750        0.000090712725272        0.000416375285996        0.003706419386365       -0.000090712725272       -0.000416375285749       -0.003706419386365
        3.870214922408000        0.000076270257758        0.000019856488820        0.003017351244066       -0.000076270257758       -0.000019856487026       -0.003017351244066
        3.991159138733250        0.000059991592243       -0.000256937903877        0.002300037081746       -0.000059991592243        0.000256937905083       -0.002300037081746
        4.112103355058500        0.000042519107148        0.000060371376649        0.001581131848785       -0.000042519107148       -0.000060371376220       -0.001581131848785
        4.233047571383750        0.000023259098740        0.000074474840392        0.000839577388607       -0.000023259098740       -0.000074474840911       -0.000839577388607
        4.353991787709000        0.000002435540295       -0.000470307757385        0.000085403655977       -0.000002435540295        0.000470307755260       -0.000085403655977
        4.474936004034250       -0.000019153678107       -0.000618112030814       -0.000652895141270        0.000019153678107        0.000618112030148        0.000652895141270
        4.595880220359500       -0.000041578526447       -0.000310785017985       -0.001378657613619        0.000041578526447        0.000310785017947        0.001378657613619
        4.716824436684750       -0.000064653380247       -0.000408818806343       -0.002086777245389        0.000064653380247        0.000408818807026        0.002086777245389
        4.837768653010000       -0.000088373012932       -0.000979087672730       -0.002778142786246        0.000088373012932        0.000979087673973        0.002778142786246
        4.958712869335250       -0.000111974233371       -0.001091280889045       -0.003430488873208        0.000111974233371        0.001091280888474        0.003430488873208
        5.079657085660500       -0.000134567304992       -0.000697430566306       -0.004019970902472        0.000134567304992        0.000697430566135        0.004019970902472
        5.200601301985750       -0.000157118075509       -0.000914381439738       -0.004579180520644        0.000157118075509        0.000914381439523        0.004579180520644
        5.321545518311000       -0.000178886089531       -0.001547763026983       -0.005089094677116        0.000178886089531        0.001547763027155        0.005089094677116
        5.442489734636251       -0.000198479559248       -0.001455923493354       -0.005514399237791        0.000198479559248        0.001455923494696        0.005514399237791
        5.563433950961501       -0.000216296399702       -0.001059724312981       -0.005871634065781        0.000216296399702        0.001059724313227        0.005871634065781
        5.684378167286750       -0.000232357505964       -0.001390952805696       -0.006165889952684        0.000232357505964        0.001390952805286        0.006165889952684
        5.805322383612000       -0.000246306140185       -0.001948606763980       -0.006392041395796        0.000246306140185        0.001948606762774        0.006392041395796
        5.926266599937250       -0.000256809136280       -0.001704390677909       -0.006520640229750        0.000256809136280        0.001704390676788        0.006520640229750
        6.047210816262500       -0.000263757787216       -0.001267222042133       -0.006555189729576        0.000263757787216        0.001267222042072        0.006555189729576
        6.168155032587750       -0.000268672690211       -0.001687989636218       -0.006538579768975        0.000268672690211        0.001687989637098        0.006538579768975
        6.289099248913001       -0.000269958620806       -0.002151540357046       -0.006435939572981        0.000269958620806        0.002151540357751        0.006435939572981
        6.410043465238251       -0.000266582370250       -0.001687293908229       -0.006228326849714        0.000266582370250        0.001687293907871        0.006228326849714
        6.530987681563500       -0.000259731306619       -0.001253825911785       -0.005949157170479        0.000259731306619        0.001253825911786        0.005949157170479
        6.651931897888750       -0.000249902726800       -0.001742455119860       -0.005613775023322        0.000249902726800        0.001742455119331        0.005613775023322
        6.772876114214000       -0.000236532934815       -0.002060091825500       -0.005212979630548        0.000236532934815        0.002060091827249        0.005212979630548
        6.893820330539250       -0.000217966083513       -0.001369672147191       -0.004714625179201        0.000217966083513        0.001369672149424        0.004714625179201
        7.014764546864500       -0.000196086219643       -0.000979006422301       -0.004164075321124        0.000196086219643        0.000979006421935        0.004164075321124
        7.135708763189751       -0.000172685928734       -0.001548125213501       -0.003601530592353        0.000172685928734        0.001548125212626        0.003601530592353
        7.256652979515001       -0.000144939645256       -0.001629912987095       -0.002969733036217        0.000144939645256        0.001629912981882        0.002969733036217
        7.377597195840250       -0.000113186076945       -0.000791632543593       -0.002279085921137        0.000113186076945        0.000791632539859        0.002279085921137
        7.498541412165500       -0.000079797488771       -0.000490249508390       -0.001579529680081        0.000079797488771        0.000490249509492        0.001579529680081
        7.619485628490750       -0.000045063604452       -0.001074339813659       -0.000877131458541        0.000045063604452        0.001074339816687        0.000877131458541
        7.740429844816000       -0.000007983351101       -0.000990597637528       -0.000152843722734        0.000007983351101        0.000990597646642        0.000152843722734
        7.861374061141250        0.000032592065297        0.000012557815391        0.000613938533918       -0.000032592065297       -0.000012557811597       -0.000613938533918
        7.982318277466501        0.000072942514564        0.000160135387575        0.001352253233825       -0.000072942514564       -0.000160135389716       -0.001352253233825
        8.103262493791750        0.000111850927509       -0.000502501074304        0.002041243405211       -0.000111850927509        0.000502501068483       -0.002041243405211
        8.224206710117000        0.000153611451439       -0.000136712390974        0.002760362253511       -0.000153611451439        0.000136712379901       -0.002760362253511
        8.345150926442249        0.000196180263653        0.000875702745809        0.003472085524494       -0.000196180263653       -0.000875702748850       -0.003472085524494
        8.466095142767500        0.000235809445323        0.000803175492606        0.004111404590505       -0.000235809445323       -0.000803175489386       -0.004111404590505
        8.587039359092751        0.000274082967962        0.000174811623471        0.004708713882026       -0.000274082967962       -0.000174811615142       -0.004708713882026
        8.707983575418000        0.000312602173893        0.000693887654485        0.005292938328114       -0.000312602173893       -0.000693887642444       -0.005292938328114
        8.828927791743251        0.000350564887363        0.001694094334872        0.005851231476878       -0.000350564887363       -0.001694094333298       -0.005851231476878
        8.949872008068500        0.000383950315355        0.001377133428349        0.006318492655669       -0.000383950315355       -0.001377133433107       -0.006318492655669
        9.070816224393750        0.000413181016166        0.000718743528010        0.006705329979969       -0.000413181016166       -0.000718743539003       -0.006705329979969
        9.191760440718999        0.000443253787893        0.001465982119986        0.007094986773348       -0.000443253787893       -0.001465982130712       -0.007094986773348
        9.312704657044250        0.000470597802498        0.002311353191942        0.007430921826142       -0.000470597802498       -0.002311353192056       -0.007430921826142
        9.433648873369501        0.000490396263156        0.001699278607812        0.007640193165388       -0.000490396263156       -0.001699278600484       -0.007640193165388
        9.554593089694750        0.000507376289084        0.001128585746382        0.007800437364377       -0.000507376289084       -0.001128585733850       -0.007800437364377
        9.675537306020001        0.000523709288616        0.001992808189472        0.007946473933276       -0.000523709288616       -0.001992808180571       -0.007946473933276
        9.796481522345250        0.000534892791333        0.002620910488948        0.008011370527569       -0.000534892791333       -0.002620910490414       -0.008011370527569
        9.917425738670500        0.000538521156125        0.001741918160124        0.007962620343367       -0.000538521156125       -0.001741918171003       -0.007962620343367
       10.038369954995749        0.000538116183084        0.001254396865463        0.007855912637723       -0.000538116183084       -0.001254396878592       -0.007855912637723
       10.159314171321000        0.000536931206373        0.002214369304490        0.007740300252589       -0.000536931206373       -0.002214369311382       -0.007740300252589
       10.280258387646251        0.000530363511405        0.002547296655231        0.007550570106683       -0.000530363511405       -0.002547296651633       -0.007550570106683
       10.401202603971500        0.000514228029776        0.001424975896836        0.007230601990891       -0.000514228029776       -0.001424975881918       -0.007230601990891
       10.522146820296751        0.000495936904691        0.001069873111897        0.006888121885598       -0.000495936904691       -0.001069873099436       -0.006888121885598
       10.643091036622000        0.000477812089612        0.002080087709362        0.006555832764540       -0.000477812089612       -0.002080087704137       -0.006555832764540
       10.764035252947250        0.000451038504110        0.002059099066904        0.006113910119393       -0.000451038504110       -0.002059099073501       -0.006113910119393
       10.884979469272501        0.000416249903627        0.000734736819669        0.005574789087066       -0.000416249903627       -0.000734736838376       -0.005574789087066
       11.005923685597750        0.000381328546432        0.000594797604572        0.005046389990233       -0.000381328546432       -0.000594797615085       -0.005046389990233
       11.126867901923001        0.000345202400014        0.001549342441019        0.004514325309189       -0.000345202400014       -0.001549342444918       -0.004514325309189
       11.247812118248250        0.000302326364598        0.001163088714858        0.003907179443184       -0.000302326364598       -0.001163088704325       -0.003907179443184
       11.368756334573501        0.000252327274106       -0.000230545523507        0.003222916470348       -0.000252327274106        0.000230545543265       -0.003222916470348
       11.489700550898750        0.000204023668859       -0.000190873611621        0.002575673494782       -0.000204023668859        0.000190873619571       -0.002575673494782
       11.610644767224001        0.000157800330521        0.000722344237875        0.001969111367843       -0.000157800330521       -0.000722344235090       -0.001969111367843
       11.731588983549251        0.000102289547943       -0.000016832019729        0.001261744663154       -0.000102289547943        0.000016832005902       -0.001261744663154
       11.852533199874500        0.000042680953869       -0.001445125526165        0.000520447940115       -0.000042680953869        0.001445125507148       -0.000520447940115
       11.973477416199751       -0.000009908068168       -0.001093709411159       -0.000119441482487        0.000009908068168        0.001093709405009        0.000119441482487
       12.094421632525000       -0.000062274826844       -0.000329675875158       -0.000742217963040        0.000062274826844        0.000329675873912        0.000742217963040
       12.215365848850251       -0.000120163751693       -0.001380002454990       -0.001416009145284        0.000120163751693        0.001380002471109        0.001416009145284
       12.336310065175500       -0.000177994059978       -0.002636044908141       -0.002073931988804        0.000177994059978        0.002636044923902        0.002073931988804
       12.457254281500751       -0.000226925285522       -0.002035976062330       -0.002614514680784        0.000226925285522        0.002035976067316        0.002614514680784
       12.578198497826001       -0.000271787337443       -0.001384559325021       -0.003096559463479        0.000271787337443        0.001384559324503        0.003096559463479
       12.699142714151250       -0.000323608889910       -0.002653797083504       -0.003646159135257        0.000323608889910        0.002653797067690        0.003646159135257
       12.820086930476501       -0.000370651311737       -0.003690039292711       -0.004130179043444        0.000370651311737        0.003690039279472        0.004130179043444
       12.941031146801750       -0.000403215508447       -0.002744726818959       -0.004443777008807        0.000403215508447        0.002744726813314        0.004443777008807
       13.061975363127001       -0.000434191383579       -0.002265957622131       -0.004732949596950        0.000434191383579        0.002265957624499        0.004732949596950
       13.182919579452250       -0.000467026983934       -0.003664180092633       -0.005035617500994        0.000467026983934        0.003664180106781        0.005035617500994
       13.303863795777501       -0.000490933191666       -0.004310937044162       -0.005236223772922        0.000490933191666        0.004310937057069        0.005236223772922
       13.424808012102751       -0.000499080061923       -0.003062979012013       -0.005265948417026        0.000499080061923        0.003062979018898        0.005265948417026
