#           time (fs)    |     mu_x (e.angstrom)   |     mu_y (e.angstrom)   |     mu_z (e.angstrom)   |
        0.000000000000000       -0.000000000000000       -0.000000000000000        0.000000000000000
        0.002418884326505        0.000000000492420        0.000000002318918        0.000030494336482
        0.004837768653010        0.000000001968833        0.000000009272551        0.000060965275352
        0.007256652979515        0.000000004405439        0.000000020747513        0.000090945344664
        0.009675537306020        0.000000007808738        0.000000036776575        0.000120905986759
        0.012094421632525        0.000000012100953        0.000000056990410        0.000149894749647
        0.014513305959030        0.000000017327796        0.000000081608199        0.000178871954960
        0.016932190285535        0.000000023328125        0.000000109866252        0.000206415511242
        0.019351074612040        0.000000030217366        0.000000142313820        0.000233959134681
        0.021769958938545        0.000000037724203        0.000000177666603        0.000259634010033
        0.024188843265050        0.000000046061900        0.000000216936366        0.000285324118432
        0.026607727591555        0.000000054825656        0.000000258208401        0.000308744039504
        0.029026611918060        0.000000064351381        0.000000303073830        0.000332197620609
        0.031445496244565        0.000000074081789        0.000000348898060        0.000353019669714
        0.033864380571070        0.000000084496075        0.000000397948775        0.000373896725462
        0.036283264897575        0.000000094870507        0.000000446805744        0.000391826776202
        0.038702149224080        0.000000105843288        0.000000498487251        0.000409835702708
        0.041121033550585        0.000000116515907        0.000000548748187        0.000424633049677
        0.043539917877090        0.000000127695747        0.000000601405349        0.000439535217991
        0.045958802203595        0.000000138307276        0.000000651378183        0.000451016326802
        0.048377686530100        0.000000149331189        0.000000703301470        0.000462629791478
        0.050796570856605        0.000000159519085        0.000000751278754        0.000470671109670
        0.053215455183110        0.000000170022729        0.000000800752234        0.000478873386425
        0.055634339509615        0.000000179431536        0.000000845059893        0.000483413171025
        0.058053223836120        0.000000189059541        0.000000890409890        0.000488143039800
        0.060472108162625        0.000000197351182        0.000000929455694        0.000489182173274
        0.062890992489130        0.000000205767391        0.000000969099025        0.000490440478839
        0.065309876815635        0.000000212631171        0.000001001419690        0.000488042261491
        0.067728761142140        0.000000219528562        0.000001033910373        0.000485891699920
        0.070147645468645        0.000000224690645        0.000001058216217        0.000480180623365
        0.072566529795150        0.000000229800700        0.000001082289601        0.000474744519102
        0.074985414121655        0.000000233032855        0.000001097505709        0.000465904041843
        0.077404298448160        0.000000236134159        0.000001112118986        0.000457364136335
        0.079823182774665        0.000000237261554        0.000001117421934        0.000445633498579
        0.082242067101170        0.000000238187434        0.000001121790100        0.000434226787380
        0.084660951427675        0.000000237095300        0.000001116639342        0.000419896917649
        0.087079835754180        0.000000235740304        0.000001110265725        0.000405911588207
        0.089498720080685        0.000000232379309        0.000001094428883        0.000389320168898
        0.091917604407190        0.000000228704376        0.000001077129491        0.000373090705658
        0.094336488733695        0.000000223094552        0.000001050700885        0.000354616478184
        0.096755373060200        0.000000217130736        0.000001022621935        0.000336518014988
        0.099174257386705        0.000000209363874        0.000000986033842        0.000316574417310
        0.101593141713210        0.000000201214508        0.000000947661973        0.000297016429113
        0.104012026039715        0.000000191454923        0.000000901688240        0.000276044669099
        0.106430910366220        0.000000181296163        0.000000853853064        0.000255464105563
        0.108849794692725        0.000000169779795        0.000000799604870        0.000233925782614
        0.111268679019230        0.000000157859490        0.000000743473657        0.000212779755011
        0.113687563345735        0.000000144891323        0.000000682387368        0.000191149149502
        0.116106447672240        0.000000131526210        0.000000619451845        0.000169907289423
        0.118525331998745        0.000000117476039        0.000000553269080        0.000148663444785
        0.120944216325250        0.000000103047296        0.000000485324469        0.000127800058311
        0.123363100651755        0.000000088343901        0.000000416064651        0.000107418783727
        0.125781984978260        0.000000073291107        0.000000345181248        0.000087404927872
        0.128200869304765        0.000000058414921        0.000000275107085        0.000068350850719
        0.130619753631270        0.000000043228537        0.000000203594826        0.000049646460059
        0.133038637957775        0.000000028702939        0.000000135171303        0.000032365256293
        0.135457522284280        0.000000013915423        0.000000065537933        0.000015411446761
        0.137876406610785        0.000000000296814        0.000000001385560        0.000000322374438
        0.140295290937290       -0.000000013527462       -0.000000063710860       -0.000014465951738
        0.142714175263795       -0.000000025660627       -0.000000120867692       -0.000026977095626
        0.145133059590300       -0.000000037936473       -0.000000178671053       -0.000039218224815
        0.147551943916805       -0.000000047995479       -0.000000226059623       -0.000048805610938
        0.149970828243310       -0.000000058128795       -0.000000273771842       -0.000058157460704
        0.152389712569815       -0.000000065527063       -0.000000308629487       -0.000064521092926
        0.154808596896320       -0.000000072927319       -0.000000343469292       -0.000070687018876
        0.157227481222825       -0.000000077093164       -0.000000363103494       -0.000073577864606
        0.159646365549330       -0.000000081186214       -0.000000382366781       -0.000076311738345
        0.162065249875835       -0.000000081575706       -0.000000384215743       -0.000075536041545
        0.164484134202340       -0.000000081816682       -0.000000385336292       -0.000074646518410
        0.166903018528845       -0.000000077926352       -0.000000367028777       -0.000070069226275
        0.169321902855350       -0.000000073812371       -0.000000347638113       -0.000065423134598
        0.171740787181855       -0.000000065191497       -0.000000307051307       -0.000056970383225
        0.174159671508360       -0.000000056273926       -0.000000265036457       -0.000048495181082
        0.176578555834865       -0.000000042536141       -0.000000200350646       -0.000036155800633
        0.178997440161370       -0.000000028432154       -0.000000133908583       -0.000023841061002
        0.181416324487875       -0.000000009266128       -0.000000043657466       -0.000007667076608
        0.183835208814380        0.000000010330678        0.000000048654921        0.000008435022466
        0.186254093140885        0.000000035151718        0.000000165539406        0.000028328901669
        0.188672977467390        0.000000060461905        0.000000284760926        0.000048104089351
        0.191091861793895        0.000000091072033        0.000000428910258        0.000071541984417
        0.193510746120400        0.000000122222294        0.000000575637626        0.000094815403162
        0.195929630446905        0.000000158656319        0.000000747215771        0.000121562758078
        0.198348514773410        0.000000195673043        0.000000921573299        0.000148101438965
        0.200767399099915        0.000000237861678        0.000001120253966        0.000177868451581
        0.203186283426420        0.000000280666269        0.000001321871520        0.000207384718839
        0.205605167752925        0.000000328433176        0.000001546824241        0.000239830654648
        0.208024052079430        0.000000376839255        0.000001774824077        0.000271986404488
        0.210442936405935        0.000000429900063        0.000002024709588        0.000306724723844
        0.212861820732440        0.000000483612659        0.000002277702528        0.000341136508751
        0.215280705058945        0.000000541576020        0.000002550677746        0.000377740725150
        0.217699589385450        0.000000600192804        0.000002826768987        0.000413985562000
        0.220118473711955        0.000000662563517        0.000003120501720        0.000451995737457
        0.222537358038460        0.000000725578096        0.000003417306380        0.000489617546291
        0.224956242364965        0.000000791762282        0.000003728999697        0.000528547319748
        0.227375126691470        0.000000858569560        0.000004043668021        0.000567063890109
        0.229794011017975        0.000000927881832        0.000004370094039        0.000606407926394
        0.232212895344480        0.000000997785351        0.000004699346007        0.000645318299739
        0.234631779670985        0.000001069457901        0.000005036888653        0.000684560040002
        0.237050663997490        0.000001141679096        0.000005377057535        0.000723352190249
        0.239469548323995        0.000001214872547        0.000005721763684        0.000761971780126
        0.241888432650500        0.000001288561757        0.000006068847921        0.000800130469709
        0.244307316977005        0.000001362377637        0.000006416486114        0.000837612738766
        0.246726201303510        0.000001436626725        0.000006766208732        0.000874627424933
        0.249145085630015        0.000001510121344        0.000007112334538        0.000910469790259
        0.251563969956520        0.000001583977707        0.000007460209132        0.000945842455714
        0.253982854283025        0.000001656177218        0.000007800236072        0.000979562623910
        0.256401738609530        0.000001728658968        0.000008141638281        0.001012815407208
        0.258820622936035        0.000001798575350        0.000008470913103        0.001043958752391
        0.261239507262540        0.000001868687392        0.000008801156349        0.001074641256905
        0.263658391589045        0.000001935335082        0.000009115037337        0.001102787757664
        0.266077275915550        0.000002002085829        0.000009429451517        0.001130483923168
        0.268496160242055        0.000002064498698        0.000009723388447        0.001155254548602
        0.270915044568560        0.000002126917106        0.000010017400173        0.001179588976681
        0.273333928895065        0.000002184165481        0.000010287014466        0.001200651420575
        0.275752813221570        0.000002241318111        0.000010556227410        0.001221295053905
        0.278171697548075        0.000002292525519        0.000010797391001        0.001238368726647
        0.280590581874580        0.000002343533306        0.000011037664854        0.001255043792622
        0.283009466201085        0.000002387892635        0.000011246576294        0.001267903992406
        0.285428350527590        0.000002431947041        0.000011454102873        0.001280388133472
        0.287847234854095        0.000002468735802        0.000011627359203        0.001288869331545
        0.290266119180600        0.000002505114066        0.000011798734235        0.001296998857624
        0.292685003507105        0.000002533708458        0.000011933397244        0.001300997046546
        0.295103887833610        0.000002561787615        0.000012065686436        0.001304669259068
        0.297522772160115        0.000002581675115        0.000012159341943        0.001304143327958
        0.299941656486620        0.000002600944538        0.000012250140017        0.001303317879855
        0.302360540813125        0.000002611734749        0.000012300948992        0.001298289996196
        0.304779425139630        0.000002621806921        0.000012348430462        0.001292989267650
        0.307198309466135        0.000002623240456        0.000012355170859        0.001283544261043
        0.309617193792640        0.000002623859773        0.000012358131473        0.001273852746484
        0.312036078119145        0.000002615814965        0.000012320229852        0.001260136505705
        0.314454962445650        0.000002606864347        0.000012278117756        0.001246199223331
        0.316873846772155        0.000002589361625        0.000012195669909        0.001228416133738
        0.319292731098660        0.000002570866786        0.000012108605775        0.001210436084383
        0.321711615425165        0.000002544070595        0.000011982385777        0.001188845547963
        0.324130499751670        0.000002516201849        0.000011851171316        0.001167080265256
        0.326549384078175        0.000002480420026        0.000011682628601        0.001141992360215
        0.328968268404680        0.000002443491545        0.000011508743087        0.001116749608388
        0.331387152731185        0.000002399172116        0.000011299987387        0.001088519958755
        0.333806037057690        0.000002353638609        0.000011085572025        0.001060152647954
        0.336224921384195        0.000002301364018        0.000010839346207        0.001029176586204
        0.338643805710700        0.000002247814836        0.000010587176396        0.000998076987538
        0.341062690037205        0.000002188293664        0.000010306817450        0.000964783104372
        0.343481574363710        0.000002127444397        0.000010020263219        0.000931376457957
        0.345900458690215        0.000002061500659        0.000009709651891        0.000896219642994
        0.348319343016720        0.000001994182327        0.000009392626985        0.000860957261780
        0.350738227343225        0.000001922742511        0.000009056126730        0.000824411346906
        0.353157111669730        0.000001849888490        0.000008713027061        0.000787763326980
        0.355575995996235        0.000001773966522        0.000008355413223        0.000750313450230
        0.357994880322740        0.000001696597408        0.000007991045579        0.000712761104371
        0.360413764649245        0.000001617277763        0.000007617425884        0.000674895916539
        0.362832648975750        0.000001536484398        0.000007236927995        0.000636924052051
        0.365251533302255        0.000001454903647        0.000006852655604        0.000599127890522
        0.367670417628760        0.000001371828583        0.000006461408837        0.000561217054673
        0.370089301955265        0.000001289155652        0.000006071989396        0.000523962209352
        0.372508186281770        0.000001204973351        0.000005675525486        0.000486581026083
        0.374927070608275        0.000001122388837        0.000005286519698        0.000450320220601
        0.377345954934780        0.000001038284932        0.000004890423081        0.000413917940550
        0.379764839261285        0.000000956959827        0.000004507346464        0.000379077148360
        0.382183723587790        0.000000874109803        0.000004117153854        0.000344076530657
        0.384602607914295        0.000000795183974        0.000003745375417        0.000311048240127
        0.387021492240800        0.000000714731634        0.000003366474369        0.000277838878978
        0.389440376567305        0.000000639292466        0.000003011115973        0.000246975914259
        0.391859260893810        0.000000562328554        0.000002648644197        0.000215908116086
        0.394278145220315        0.000000491390109        0.000002314482409        0.000187518111557
        0.396697029546820        0.000000418931482        0.000001973229645        0.000158897419574
        0.399115913873325        0.000000353414573        0.000001664601859        0.000133238035104
        0.401534798199830        0.000000286384286        0.000001348916078        0.000107320487731
        0.403953682526335        0.000000227097821        0.000001069632643        0.000084595440105
        0.406372566852840        0.000000166306507        0.000000783332315        0.000061583637849
        0.408791451179345        0.000000113930464        0.000000536596325        0.000041939610601
        0.411210335505850        0.000000060059343        0.000000282890406        0.000021979653072
        0.413629219832355        0.000000015129700        0.000000071226710        0.000005504132901
        0.416048104158860       -0.000000031284436       -0.000000147356111       -0.000011316526322
        0.418466988485365       -0.000000068388512       -0.000000322161268       -0.000024596453178
        0.420885872811870       -0.000000106966051       -0.000000503832652       -0.000038250200762
        0.423304757138375       -0.000000136032498       -0.000000640780107       -0.000048368074143
        0.425723641464880       -0.000000166561235       -0.000000784540229       -0.000058887362402
        0.428142525791385       -0.000000187552632       -0.000000883453431       -0.000065936593355
        0.430561410117890       -0.000000209995238       -0.000000989126172       -0.000073413194389
        0.432980294444395       -0.000000223053415       -0.000001050672903       -0.000077545342956
        0.435399178770900       -0.000000237551971       -0.000001118927227       -0.000082128644496
        0.437818063097405       -0.000000242999562       -0.000001144626902       -0.000083550758635
        0.440236947423910       -0.000000249877031       -0.000001176983792       -0.000085445129827
        0.442655831750415       -0.000000248215865       -0.000001169199923       -0.000084416188873
        0.445074716076920       -0.000000247974418       -0.000001168024499       -0.000083877458934
        0.447493600403425       -0.000000239880752       -0.000001129942217       -0.000080703979160
        0.449912484729930       -0.000000233196918       -0.000001098420908       -0.000078035085941
        0.452331369056435       -0.000000219513509       -0.000001034009642       -0.000073065959053
        0.454750253382940       -0.000000207230182       -0.000000976112539       -0.000068611837605
        0.457169137709445       -0.000000188955291       -0.000000890074241       -0.000062232485088
        0.459588022035950       -0.000000172070675       -0.000000810503023       -0.000056374278376
        0.462006906362455       -0.000000150344147       -0.000000708206567       -0.000049000215394
        0.464425790688960       -0.000000129997768       -0.000000612328634       -0.000042148899934
        0.466844675015465       -0.000000106084350       -0.000000499731289       -0.000034218811764
        0.469263559341970       -0.000000083540337       -0.000000393500999       -0.000026808340160
        0.471682443668475       -0.000000058810502       -0.000000277058074       -0.000018776781736
