#     time (fs)  |  E_x (eV/ang)  | E_y (eV/ang) | E_z (eV/ang)
     0.00000000     0.00000000     0.00000000     0.43775668
     0.00241888     0.02602515     0.02602515     0.43736959
     0.00483777     0.05200427     0.05200427     0.43620899
     0.00725665     0.07789142     0.07789142     0.43427694
     0.00967554     0.10364082     0.10364082     0.43157686
     0.01209442     0.12920692     0.12920692     0.42811351
     0.01451331     0.15454452     0.15454452     0.42389303
     0.01693219     0.17960880     0.17960880     0.41892288
     0.01935107     0.20435544     0.20435544     0.41321185
     0.02176996     0.22874066     0.22874066     0.40677004
     0.02418884     0.25272135     0.25272135     0.39960884
     0.02660773     0.27625509     0.27625509     0.39174092
     0.02902661     0.29930027     0.29930027     0.38318019
     0.03144550     0.32181612     0.32181612     0.37394179
     0.03386438     0.34376282     0.34376282     0.36404207
     0.03628326     0.36510157     0.36510157     0.35349852
     0.03870215     0.38579463     0.38579463     0.34232979
     0.04112103     0.40580539     0.40580539     0.33055564
     0.04353992     0.42509847     0.42509847     0.31819690
     0.04595880     0.44363975     0.44363975     0.30527541
     0.04837769     0.46139643     0.46139643     0.29181402
     0.05079657     0.47833712     0.47833712     0.27783656
     0.05321546     0.49443185     0.49443185     0.26336773
     0.05563434     0.50965216     0.50965216     0.24843312
     0.05805322     0.52397113     0.52397113     0.23305916
     0.06047211     0.53736344     0.53736344     0.21727301
     0.06289099     0.54980541     0.54980541     0.20110262
     0.06530988     0.56127502     0.56127502     0.18457656
     0.06772876     0.57175199     0.57175199     0.16772408
     0.07014765     0.58121780     0.58121780     0.15057497
     0.07256653     0.58965571     0.58965571     0.13315956
     0.07498541     0.59705079     0.59705079     0.11550865
     0.07740430     0.60338996     0.60338996     0.09765347
     0.07982318     0.60866202     0.60866202     0.07962557
     0.08224207     0.61285763     0.61285763     0.06145686
     0.08466095     0.61596938     0.61596938     0.04317946
     0.08707984     0.61799177     0.61799177     0.02482570
     0.08949872     0.61892121     0.61892121     0.00642803
     0.09191760     0.61875608     0.61875608    -0.01198101
     0.09433649     0.61749664     0.61749664    -0.03036886
     0.09675537     0.61514515     0.61514515    -0.04870300
     0.09917426     0.61170574     0.61170574    -0.06695101
     0.10159314     0.60718451     0.60718451    -0.08508061
     0.10401203     0.60158946     0.60158946    -0.10305975
     0.10643091     0.59493047     0.59493047    -0.12085662
     0.10884979     0.58721932     0.58721932    -0.13843975
     0.11126868     0.57846966     0.57846966    -0.15577804
     0.11368756     0.56869695     0.56869695    -0.17284084
     0.11610645     0.55791847     0.55791847    -0.18959796
     0.11852533     0.54615330     0.54615330    -0.20601977
     0.12094422     0.53342224     0.53342224    -0.22207722
     0.12336310     0.51974780     0.51974780    -0.23774193
     0.12578198     0.50515417     0.50515417    -0.25298617
     0.12820087     0.48966715     0.48966715    -0.26778301
     0.13061975     0.47331414     0.47331414    -0.28210626
     0.13303864     0.45612405     0.45612405    -0.29593059
     0.13545752     0.43812730     0.43812730    -0.30923156
     0.13787641     0.41935569     0.41935569    -0.32198564
     0.14029529     0.39984245     0.39984245    -0.33417028
     0.14271418     0.37962206     0.37962206    -0.34576392
     0.14513306     0.35873030     0.35873030    -0.35674607
     0.14755194     0.33720412     0.33720412    -0.36709730
     0.14997083     0.31508157     0.31508157    -0.37679931
     0.15238971     0.29240179     0.29240179    -0.38583493
     0.15480860     0.26920489     0.26920489    -0.39418819
     0.15722748     0.24553189     0.24553189    -0.40184431
     0.15964637     0.22142466     0.22142466    -0.40878976
     0.16206525     0.19692583     0.19692583    -0.41501225
     0.16448413     0.17207873     0.17207873    -0.42050077
     0.16690302     0.14692730     0.14692730    -0.42524562
     0.16932190     0.12151602     0.12151602    -0.42923841
     0.17174079     0.09588984     0.09588984    -0.43247207
     0.17415967     0.07009408     0.07009408    -0.43494090
     0.17657856     0.04417435     0.04417435    -0.43664051
     0.17899744     0.01817650     0.01817650    -0.43756791
     0.18141632    -0.00785350    -0.00785350    -0.43772145
     0.18383521    -0.03386961    -0.03386961    -0.43710086
     0.18625409    -0.05982582    -0.05982582    -0.43570725
     0.18867298    -0.08567623    -0.08567623    -0.43354307
     0.19109186    -0.11137511    -0.11137511    -0.43061216
     0.19351075    -0.13687702    -0.13687702    -0.42691969
     0.19592963    -0.16213687    -0.16213687    -0.42247220
     0.19834851    -0.18710996    -0.18710996    -0.41727755
     0.20076740    -0.21175215    -0.21175215    -0.41134494
     0.20318628    -0.23601984    -0.23601984    -0.40468484
     0.20560517    -0.25987013    -0.25987013    -0.39730904
     0.20802405    -0.28326082    -0.28326082    -0.38923059
     0.21044294    -0.30615056    -0.30615056    -0.38046376
     0.21286182    -0.32849885    -0.32849885    -0.37102408
     0.21528071    -0.35026619    -0.35026619    -0.36092822
     0.21769959    -0.37141407    -0.37141407    -0.35019405
     0.22011847    -0.39190509    -0.39190509    -0.33884055
     0.22253736    -0.41170301    -0.41170301    -0.32688779
     0.22495624    -0.43077281    -0.43077281    -0.31435693
     0.22737513    -0.44908078    -0.44908078    -0.30127011
     0.22979401    -0.46659454    -0.46659454    -0.28765048
     0.23221290    -0.48328310    -0.48328310    -0.27352213
     0.23463178    -0.49911696    -0.49911696    -0.25891005
     0.23705066    -0.51406811    -0.51406811    -0.24384008
     0.23946955    -0.52811012    -0.52811012    -0.22833887
     0.24188843    -0.54121814    -0.54121814    -0.21243383
     0.24430732    -0.55336900    -0.55336900    -0.19615309
     0.24672620    -0.56454121    -0.56454121    -0.17952545
     0.24914509    -0.57471500    -0.57471500    -0.16258032
     0.25156397    -0.58387239    -0.58387239    -0.14534765
     0.25398285    -0.59199718    -0.59199718    -0.12785793
     0.25640174    -0.59907500    -0.59907500    -0.11014209
     0.25882062    -0.60509333    -0.60509333    -0.09223146
     0.26123951    -0.61004153    -0.61004153    -0.07415771
     0.26365839    -0.61391086    -0.61391086    -0.05595282
     0.26607728    -0.61669445    -0.61669445    -0.03764897
     0.26849616    -0.61838741    -0.61838741    -0.01927853
     0.27091504    -0.61898672    -0.61898672    -0.00087400
     0.27333393    -0.61849133    -0.61849133     0.01753207
     0.27575281    -0.61690211    -0.61690211     0.03590714
     0.27817170    -0.61422188    -0.61422188     0.05421871
     0.28059058    -0.61045538    -0.61045538     0.07243438
     0.28300947    -0.60560927    -0.60560927     0.09052196
     0.28542835    -0.59969211    -0.59969211     0.10844944
     0.28784723    -0.59271437    -0.59271437     0.12618513
     0.29026612    -0.58468840    -0.58468840     0.14369765
     0.29268500    -0.57562838    -0.57562838     0.16095604
     0.29510389    -0.56555035    -0.56555035     0.17792977
     0.29752277    -0.55447212    -0.55447212     0.19458883
     0.29994166    -0.54241328    -0.54241328     0.21090375
     0.30236054    -0.52939516    -0.52939516     0.22684568
     0.30477943    -0.51544079    -0.51544079     0.24238642
     0.30719831    -0.50057485    -0.50057485     0.25749850
     0.30961719    -0.48482362    -0.48482362     0.27215518
     0.31203608    -0.46821496    -0.46821496     0.28633054
     0.31445496    -0.45077824    -0.45077824     0.29999951
     0.31687385    -0.43254431    -0.43254431     0.31313793
     0.31929273    -0.41354541    -0.41354541     0.32572255
     0.32171162    -0.39381514    -0.39381514     0.33773112
     0.32413050    -0.37338839    -0.37338839     0.34914240
     0.32654938    -0.35230128    -0.35230128     0.35993620
     0.32896827    -0.33059113    -0.33059113     0.37009345
     0.33138715    -0.30829630    -0.30829630     0.37959617
     0.33380604    -0.28545625    -0.28545625     0.38842756
     0.33622492    -0.26211135    -0.26211135     0.39657201
     0.33864381    -0.23830291    -0.23830291     0.40401510
     0.34106269    -0.21407301    -0.21407301     0.41074367
     0.34348157    -0.18946452    -0.18946452     0.41674583
     0.34590046    -0.16452095    -0.16452095     0.42201096
     0.34831934    -0.13928642    -0.13928642     0.42652975
     0.35073823    -0.11380556    -0.11380556     0.43029421
     0.35315711    -0.08812343    -0.08812343     0.43329767
     0.35557600    -0.06228545    -0.06228545     0.43553483
     0.35799488    -0.03633732    -0.03633732     0.43700173
     0.36041376    -0.01032492    -0.01032492     0.43769578
     0.36283265     0.01570574     0.01570574     0.43761575
     0.36525153     0.04170862     0.04170862     0.43676177
     0.36767042     0.06763774     0.06763774     0.43513537
     0.37008930     0.09344724     0.09344724     0.43273942
     0.37250819     0.11909147     0.11909147     0.42957814
     0.37492707     0.14452509     0.14452509     0.42565715
     0.37734595     0.16970311     0.16970311     0.42098336
     0.37976484     0.19458100     0.19458100     0.41556505
     0.38218372     0.21911477     0.21911477     0.40941180
     0.38460261     0.24326103     0.24326103     0.40253449
     0.38702149     0.26697707     0.26697707     0.39494528
     0.38944038     0.29022095     0.29022095     0.38665759
     0.39185926     0.31295156     0.31295156     0.37768609
     0.39427815     0.33512871     0.33512871     0.36804663
     0.39669703     0.35671317     0.35671317     0.35775627
     0.39911591     0.37766677     0.37766677     0.34683321
     0.40153480     0.39795245     0.39795245     0.33529676
     0.40395368     0.41753434     0.41753434     0.32316732
     0.40637257     0.43637781     0.43637781     0.31046635
     0.40879145     0.45444952     0.45444952     0.29721631
     0.41121034     0.47171753     0.47171753     0.28344063
     0.41362922     0.48815128     0.48815128     0.26916368
     0.41604810     0.50372172     0.50372172     0.25441070
     0.41846699     0.51840131     0.51840131     0.23920778
     0.42088587     0.53216409     0.53216409     0.22358182
     0.42330476     0.54498571     0.54498571     0.20756045
     0.42572364     0.55684351     0.55684351     0.19117199
     0.42814253     0.56771651     0.56771651     0.17444544
     0.43056141     0.57758548     0.57758548     0.15741038
     0.43298029     0.58643298     0.58643298     0.14009694
     0.43539918     0.59424334     0.59424334     0.12253572
     0.43781806     0.60100276     0.60100276     0.10475780
     0.44023695     0.60669929     0.60669929     0.08679461
     0.44265583     0.61132284     0.61132284     0.06867792
     0.44507472     0.61486525     0.61486525     0.05043977
     0.44749360     0.61732025     0.61732025     0.03211241
     0.44991248     0.61868349     0.61868349     0.01372827
     0.45233137     0.61895257     0.61895257    -0.00468016
     0.45475025     0.61812701     0.61812701    -0.02308031
     0.45716914     0.61620827     0.61620827    -0.04143964
     0.45958802     0.61319974     0.61319974    -0.05972568
     0.46200691     0.60910675     0.60910675    -0.07790609
     0.46442579     0.60393653     0.60393653    -0.09594873
     0.46684468     0.59769822     0.59769822    -0.11382168
     0.46926356     0.59040286     0.59040286    -0.13149333
     0.47168244     0.58206335     0.58206335    -0.14893242
     0.47410133     0.57269445     0.57269445    -0.16610813
     0.47652021     0.56231271     0.56231271    -0.18299007
     0.47893910     0.55093650     0.55093650    -0.19954838
     0.48135798     0.53858594     0.53858594    -0.21575378
     0.48377687     0.52528286     0.52528286    -0.23157762
     0.48619575     0.51105081     0.51105081    -0.24699190
     0.48861463     0.49591495     0.49591495    -0.26196937
     0.49103352     0.47990204     0.47990204    -0.27648353
     0.49345240     0.46304041     0.46304041    -0.29050873
     0.49587129     0.44535987     0.44535987    -0.30402015
     0.49829017     0.42689170     0.42689170    -0.31699389
     0.50070906     0.40766855     0.40766855    -0.32940702
     0.50312794     0.38772443     0.38772443    -0.34123759
     0.50554682     0.36709460     0.36709460    -0.35246466
     0.50796571     0.34581555     0.34581555    -0.36306839
     0.51038459     0.32392492     0.32392492    -0.37303001
     0.51280348     0.30146141     0.30146141    -0.38233192
     0.51522236     0.27846475     0.27846475    -0.39095766
     0.51764125     0.25497562     0.25497562    -0.39889198
     0.52006013     0.23103556     0.23103556    -0.40612084
     0.52247901     0.20668690     0.20668690    -0.41263146
     0.52489790     0.18197271     0.18197271    -0.41841233
     0.52731678     0.15693669     0.15693669    -0.42345322
     0.52973567     0.13162313     0.13162313    -0.42774522
     0.53215455     0.10607678     0.10607678    -0.43128074
     0.53457344     0.08034283     0.08034283    -0.43405352
     0.53699232     0.05446680     0.05446680    -0.43605865
     0.53941120     0.02849443     0.02849443    -0.43729261
     0.54183009     0.00247168     0.00247168    -0.43775319
     0.54424897    -0.02355545    -0.02355545    -0.43743960
     0.54666786    -0.04954092    -0.04954092    -0.43635237
     0.54908674    -0.07543877    -0.07543877    -0.43449344
     0.55150563    -0.10120321    -0.10120321    -0.43186609
     0.55392451    -0.12678866    -0.12678866    -0.42847497
     0.55634340    -0.15214989    -0.15214989    -0.42432608
     0.55876228    -0.17724203    -0.17724203    -0.41942675
     0.56118116    -0.20202072    -0.20202072    -0.41378565
     0.56360005    -0.22644212    -0.22644212    -0.40741276
     0.56601893    -0.25046305    -0.25046305    -0.40031933
     0.56843782    -0.27404103    -0.27404103    -0.39251793
     0.57085670    -0.29713435    -0.29713435    -0.38402235
     0.57327559    -0.31970219    -0.31970219    -0.37484761
     0.57569447    -0.34170461    -0.34170461    -0.36500994
     0.57811335    -0.36310273    -0.36310273    -0.35452673
     0.58053224    -0.38385868    -0.38385868    -0.34341653
     0.58295112    -0.40393576    -0.40393576    -0.33169899
     0.58537001    -0.42329847    -0.42329847    -0.31939482
     0.58778889    -0.44191255    -0.44191255    -0.30652580
     0.59020778    -0.45974510    -0.45974510    -0.29311467
     0.59262666    -0.47676458    -0.47676458    -0.27918515
     0.59504554    -0.49294087    -0.49294087    -0.26476189
     0.59746443    -0.50824539    -0.50824539    -0.24987039
     0.59988331    -0.52265105    -0.52265105    -0.23453698
     0.60230220    -0.53613238    -0.53613238    -0.21878878
     0.60472108    -0.54866555    -0.54866555    -0.20265365
     0.60713997    -0.56022838    -0.56022838    -0.18616012
     0.60955885    -0.57080043    -0.57080043    -0.16933735
     0.61197773    -0.58036299    -0.58036299    -0.15221511
     0.61439662    -0.58889916    -0.58889916    -0.13482367
     0.61681550    -0.59639384    -0.59639384    -0.11719379
     0.61923439    -0.60283378    -0.60283378    -0.09935664
     0.62165327    -0.60820758    -0.60820758    -0.08134378
     0.62407216    -0.61250574    -0.61250574    -0.06318706
     0.62649104    -0.61572067    -0.61572067    -0.04491860
     0.62890992    -0.61784667    -0.61784667    -0.02657069
     0.63132881    -0.61887999    -0.61887999    -0.00817579
     0.63374769    -0.61881879    -0.61881879     0.01023357
     0.63616658    -0.61766319    -0.61766319     0.02862483
     0.63858546    -0.61541523    -0.61541523     0.04696546
     0.64100435    -0.61207889    -0.61207889     0.06522304
     0.64342323    -0.60766006    -0.60766006     0.08336526
     0.64584212    -0.60216656    -0.60216656     0.10136006
     0.64826100    -0.59560811    -0.59560811     0.11917559
     0.65067988    -0.58799630    -0.58799630     0.13678035
     0.65309877    -0.57934460    -0.57934460     0.15414322
     0.65551765    -0.56966831    -0.56966831     0.17123348
     0.65793654    -0.55898454    -0.55898454     0.18802090
     0.66035542    -0.54731219    -0.54731219     0.20447580
     0.66277431    -0.53467189    -0.53467189     0.22056908
     0.66519319    -0.52108600    -0.52108600     0.23627228
     0.66761207    -0.50657856    -0.50657856     0.25155762
     0.67003096    -0.49117521    -0.49117521     0.26639807
     0.67244984    -0.47490320    -0.47490320     0.28076738
     0.67486873    -0.45779131    -0.45779131     0.29464015
     0.67728761    -0.43986980    -0.43986980     0.30799183
     0.67970650    -0.42117036    -0.42117036     0.32079882
     0.68212538    -0.40172606    -0.40172606     0.33303847
     0.68454426    -0.38157130    -0.38157130     0.34468913
     0.68696315    -0.36074172    -0.36074172     0.35573019
     0.68938203    -0.33927415    -0.33927415     0.36614212
     0.69180092    -0.31720656    -0.31720656     0.37590653
     0.69421980    -0.29457798    -0.29457798     0.38500612
     0.69663869    -0.27142843    -0.27142843     0.39342482
     0.69905757    -0.24779884    -0.24779884     0.40114774
     0.70147645    -0.22373102    -0.22373102     0.40816121
     0.70389534    -0.19926752    -0.19926752     0.41445283
     0.70631422    -0.17445160    -0.17445160     0.42001147
     0.70873311    -0.14932717    -0.14932717     0.42482731
     0.71115199    -0.12393864    -0.12393864     0.42889183
     0.71357088    -0.09833092    -0.09833092     0.43219784
     0.71598976    -0.07254930    -0.07254930     0.43473948
     0.71840864    -0.04663937    -0.04663937     0.43651228
     0.72082753    -0.02064696    -0.02064696     0.43751309
     0.72324641     0.00538196     0.00538196     0.43774014
     0.72566530     0.03140137     0.03140137     0.43719303
     0.72808418     0.05736524     0.05736524     0.43587272
     0.73050307     0.08322766     0.08322766     0.43378157
     0.73292195     0.10894288     0.10894288     0.43092325
     0.73534084     0.13446544     0.13446544     0.42730283
     0.73775972     0.15975019     0.15975019     0.42292670
     0.74017860     0.18475242     0.18475242     0.41780262
     0.74259749     0.20942791     0.20942791     0.41193964
     0.74501637     0.23373301     0.23373301     0.40534812
     0.74743526     0.25762475     0.25762475     0.39803974
     0.74985414     0.28106087     0.28106087     0.39002740
     0.75227303     0.30399993     0.30399993     0.38132529
     0.75469191     0.32640135     0.32640135     0.37194879
     0.75711079     0.34822551     0.34822551     0.36191449
     0.75952968     0.36943383     0.36943383     0.35124012
     0.76194856     0.38998879     0.38998879     0.33994458
     0.76436745     0.40985404     0.40985404     0.32804783
     0.76678633     0.42899444     0.42899444     0.31557091
     0.76920522     0.44737616     0.44737616     0.30253590
     0.77162410     0.46496667     0.46496667     0.28896584
     0.77404298     0.48173488     0.48173488     0.27488473
     0.77646187     0.49765111     0.49765111     0.26031748
     0.77888075     0.51268724     0.51268724     0.24528985
     0.78129964     0.52681665     0.52681665     0.22982842
     0.78371852     0.54001437     0.54001437     0.21396052
     0.78613741     0.55225706     0.55225706     0.19771423
