#           time (fs)    |     mu_x (e.angstrom)   |     mu_y (e.angstrom)   |     mu_z (e.angstrom)   |
        0.000000000000000       -0.000000000000000       -0.000000000000000        0.000000000000000
        0.002418884326505       -0.000000004054162        0.000000010489349        0.000054101228279
        0.004837768653010       -0.000000041666345        0.000000107782764        0.000277951265656
        0.007256652979515       -0.000000112631815        0.000000291362808        0.000500919847790
        0.009675537306020       -0.000000267005115        0.000000690690608        0.000890598553148
        0.012094421632525       -0.000000478902106        0.000001238837503        0.001277932465793
        0.014513305959030       -0.000000820988961        0.000002123740218        0.001825650558323
        0.016932190285535       -0.000001242871061        0.000003215083076        0.002369008010641
        0.019351074612040       -0.000001836668991        0.000004751111485        0.003063245522687
        0.021769958938545       -0.000002529855138        0.000006544273449        0.003750595398052
        0.024188843265050       -0.000003429768346        0.000008872165514        0.004576307622722
        0.026607727591555       -0.000004445270260        0.000011499111525        0.005392147788536
        0.029026611918060       -0.000005693715946        0.000014728603442        0.006331036316681
        0.031445496244565       -0.000007069928348        0.000018288668785        0.007256676035114
        0.033864380571070       -0.000008695251119        0.000022493103822        0.008287520230657
        0.036283264897575       -0.000010455966323        0.000027047862350        0.009301421806552
        0.038702149224080       -0.000012470717328        0.000032259743377        0.010400465037192
        0.041121033550585       -0.000014623518692        0.000037828855651        0.011478638831201
        0.043539917877090       -0.000017023148071        0.000044036466256        0.012620022841200
        0.045958802203595       -0.000019558228464        0.000050594626067        0.013736468872600
        0.048377686530100       -0.000022320230597        0.000057739821375        0.014892708870305
        0.050796570856605       -0.000025209672635        0.000065214894724        0.016019897448826
        0.053215455183110       -0.000028293213618        0.000073192137053        0.017162389795669
        0.055634339509615       -0.000031490758176        0.000081464561188        0.018271772965903
        0.058053223836120       -0.000034836804172        0.000090121247935        0.019371326804854
        0.060472108162625       -0.000038278122740        0.000099024730030        0.020433871868981
        0.062890992489130       -0.000041810076582        0.000108162832380        0.021461255625340
        0.065309876815635       -0.000045413551680        0.000117486358400        0.022447991635797
        0.067728761142140       -0.000049038393564        0.000126865360014        0.023374485065974
        0.070147645468645       -0.000052706399848        0.000136356494927        0.024257052953098
        0.072566529795150       -0.000056316316375        0.000145697590390        0.025054995309551
        0.074985414121655       -0.000059936983539        0.000155067021564        0.025806192231939
        0.077404298448160       -0.000063411458017        0.000164058505547        0.026449517155038
        0.079823182774665       -0.000066860885335        0.000172985752642        0.027043825732358
        0.082242067101170       -0.000070069211319        0.000181289503046        0.027508573671025
        0.084660951427675       -0.000073214092945        0.000189429690387        0.027922666978793
        0.087079835754180       -0.000076018262824        0.000196688622679        0.028187466278529
        0.089498720080685       -0.000078718872983        0.000203680184577        0.028400679848909
        0.091917604407190       -0.000080976784080        0.000209526530690        0.028447188123690
        0.094336488733695       -0.000083090262258        0.000214999696976        0.028441950701149
        0.096755373060200       -0.000084659174755        0.000219063940908        0.028255248718766
        0.099174257386705       -0.000086043043193        0.000222649829496        0.028017464158301
        0.101593141713210       -0.000086783217308        0.000224570113692        0.027586395209441
        0.104012026039715       -0.000087299056573        0.000225910239793        0.027105768670174
        0.106430910366220       -0.000087077490992        0.000225342041806        0.026423217250361
        0.108849794692725       -0.000086594694437        0.000224098039867        0.025693519718731
        0.111268679019230       -0.000085288884177        0.000220723908152        0.024756624317864
        0.113687563345735       -0.000083688408693        0.000216587253027        0.023775890480491
        0.116106447672240       -0.000081190038404        0.000210126384286        0.022586186333449
        0.118525331998745       -0.000078368067183        0.000202827892883        0.021356841895819
        0.120944216325250       -0.000074586555481        0.000193045331337        0.019920330683867
        0.123363100651755       -0.000070457988548        0.000182364225202        0.018449246380964
        0.125781984978260       -0.000065323800261        0.000169079466774        0.016776391069649
        0.128200869304765       -0.000059825490326        0.000154851779942        0.015074861820123
        0.130619753631270       -0.000053293136611        0.000137946571520        0.013180506055375
        0.133038637957775       -0.000046386791273        0.000120072696430        0.011264154951617
        0.135457522284280       -0.000038437442271        0.000099497832187        0.009167367690752
        0.137876406610785       -0.000030112118776        0.000077949009533        0.007055975771752
        0.140295290937290       -0.000020755759769        0.000053729942516        0.004779823077863
        0.142714175263795       -0.000011029885233        0.000028553518297        0.002497087077618
        0.145133059590300       -0.000000306955084        0.000000794625854        0.000068334231840
        0.147551943916805        0.000010770186778       -0.000027882079604       -0.002358444289289
        0.149970828243310        0.000022787727043       -0.000058994713800       -0.004909696025283
        0.152389712569815        0.000035135092159       -0.000090962054964       -0.007449985597595
        0.154808596896320        0.000048343302442       -0.000125159452068       -0.010090722128322
        0.157227481222825        0.000061847804552       -0.000160124727230       -0.012711194682816
        0.159646365549330        0.000076110951014       -0.000197055497060       -0.015405965675812
        0.162065249875835        0.000090627829176       -0.000234643908179       -0.018070981599033
        0.164484134202340        0.000105779230283       -0.000273876452860       -0.020782423161795
        0.166903018528845        0.000121133080884       -0.000313633794199       -0.023454560565655
        0.169321902855350        0.000136976619993       -0.000354660244832       -0.026143955844995
        0.171740787181855        0.000152963095638       -0.000396057324245       -0.028784575765974
        0.174159671508360        0.000169275392910       -0.000438299189141       -0.031412444660333
        0.176578555834865        0.000185663557453       -0.000480737951065       -0.033982283284505
        0.178997440161370        0.000202196780723       -0.000523553419336       -0.036508991953925
        0.181416324487875        0.000218732096495       -0.000566374703888       -0.038968770493204
        0.183835208814380        0.000235217377618       -0.000609067513964       -0.041355150998500
        0.186254093140885        0.000251625287879       -0.000651560352664       -0.043666193525448
        0.188672977467390        0.000267776698330       -0.000693390102465       -0.045874163731920
        0.191091861793895        0.000283766755274       -0.000734802418617       -0.047999013119001
        0.193510746120400        0.000299285782580       -0.000774996163062       -0.049992186962130
        0.195929630446905        0.000314556259218       -0.000814546714480       -0.051895209067157
        0.198348514773410        0.000329136714416       -0.000852311667546       -0.053639487397152
        0.200767399099915        0.000343379627477       -0.000889203041501       -0.055287453788647
        0.203186283426420        0.000356712903463       -0.000923740174538       -0.056751586284177
        0.205605167752925        0.000369619364424       -0.000957172620186       -0.058114226104730
        0.208024052079430        0.000381399955989       -0.000987690926236       -0.059270335168560
        0.210442936405935        0.000392665758645       -0.001016876788772       -0.060320847185697
        0.212861820732440        0.000402596947459       -0.001042607964539       -0.061144905299102
        0.215280705058945        0.000411928293303       -0.001066786468280       -0.061860421784321
        0.217699589385450        0.000419727895221       -0.001086999751612       -0.062332674494376
        0.220118473711955        0.000426847152529       -0.001105451866540       -0.062694669293142
        0.222537358038460        0.000432253220637       -0.001119468758027       -0.062799996827131
        0.224956242364965        0.000436904609694       -0.001131531876237       -0.062794630824906
        0.227375126691470        0.000439680984501       -0.001138740469018       -0.062522842256674
        0.229794011017975        0.000441636079972       -0.001143822614257       -0.062141240396807
        0.232212895344480        0.000441577678284       -0.001143691256587       -0.061487295318629
        0.234631779670985        0.000440640620468       -0.001141284551799       -0.060725750373208
        0.237050663997490        0.000437578356743       -0.001133374572346       -0.059689904137496
        0.239469548323995        0.000433590666282       -0.001123067696839       -0.058550003556777
        0.241888432650500        0.000427395904689       -0.001107044933152       -0.057137873329223
        0.244307316977005        0.000420240800330       -0.001088534312764       -0.055626546682660
        0.246726201303510        0.000410829242206       -0.001064179198688       -0.053849096774301
        0.249145085630015        0.000400435368274       -0.001037278688976       -0.051978582528247
        0.251563969956520        0.000387770288192       -0.001004494676995       -0.049852028729665
        0.253982854283025        0.000374114767431       -0.000969143520895       -0.047639760364605
        0.256401738609530        0.000358209521363       -0.000927963640020       -0.045185394271397
        0.258820622936035        0.000341320259586       -0.000884232507267       -0.042653807005154
        0.261239507262540        0.000322240000590       -0.000834823886003       -0.039897742579736
        0.263658391589045        0.000302197181884       -0.000782918831637       -0.037074003212065
        0.266077275915550        0.000280059732041       -0.000725585048207       -0.034046849052312
        0.268496160242055        0.000256996456922       -0.000665849261106       -0.030962512660292
        0.270915044568560        0.000231972298646       -0.000601030419033       -0.027698974620315
        0.273333928895065        0.000206074332211       -0.000533943668248       -0.024389572992800
        0.275752813221570        0.000178385697331       -0.000462214134024       -0.020927992905797
        0.278171697548075        0.000149890309859       -0.000388389859995       -0.017432560689640
        0.280590581874580        0.000119809360631       -0.000310453640195       -0.013814397958839
        0.283009466201085        0.000089003258954       -0.000230633679114       -0.010174943481656
        0.285428350527590        0.000056849371181       -0.000147317456253       -0.006444207215897
        0.287847234854095        0.000024065735188       -0.000062364428126       -0.002705135833189
        0.290266119180600       -0.000009798090389        0.000025391682947        0.001092224006223
        0.292685003507105       -0.000044183435843        0.000114504249383        0.004884725432025
        0.295103887833610       -0.000079354992063        0.000205658120529        0.008701458749974
        0.297522772160115       -0.000114928224017        0.000297857810704        0.012500067006984
        0.299941656486620       -0.000150971288817        0.000391278749797        0.016288286522801
        0.302360540813125       -0.000187285991087        0.000485408277859        0.020045207133790
        0.304779425139630       -0.000223736220837        0.000579892323860        0.023757063562493
        0.307198309466135       -0.000260319472102        0.000674725343919        0.027424705760318
        0.309617193792640       -0.000296690912310        0.000769012186607        0.031013065026921
        0.312036078119145       -0.000333049969601        0.000863270669836        0.034544716418495
        0.314454962445650       -0.000368842086534        0.000956061939833        0.037963828662348
        0.316873846772155       -0.000404471564572        0.001048434854240        0.041314319370872
        0.319292731098660       -0.000439176690721        0.001138413499798        0.044520469614396
        0.321711615425165       -0.000473566127291        0.001227576501464        0.047646815841973
        0.324130499751670       -0.000506677204589        0.001313426944016        0.050598946473691
        0.326549384078175       -0.000539318893479        0.001398062765335        0.053460963735744
        0.328968268404680       -0.000570337390911        0.001478491506519        0.056121259386639
        0.331387152731185       -0.000600734357073        0.001557310709124        0.058682136130777
        0.333806037057690       -0.000629178233929        0.001631067048355        0.061016562098498
        0.336224921384195       -0.000656852220589        0.001702828796218        0.063243385026050
        0.338643805710700       -0.000682263803257        0.001768725310133        0.065222171114359
        0.341062690037205       -0.000706763137834        0.001832257812174        0.067086394263053
        0.343481574363710       -0.000728716776804        0.001889190245705        0.068684456742630
        0.345900458690215       -0.000749623981789        0.001943410517210        0.070162307252213
        0.348319343016720       -0.000767733356541        0.001990376740588        0.071359602600415
        0.350738227343225       -0.000784672373064        0.002034309338930        0.072432417055787
        0.353157111669730       -0.000798597315808        0.002070427035717        0.073214222182211
        0.355575995996235       -0.000811240211502        0.002103221438170        0.073868708495461
        0.357994880322740       -0.000820692926318        0.002127744206105        0.074225823290627
        0.360413764649245       -0.000828765965290        0.002148690515789        0.074454244227669
        0.362832648975750       -0.000833516527137        0.002161022084737        0.074383113466119
        0.365251533302255       -0.000836805488363        0.002169564774619        0.074183389127169
        0.367670417628760       -0.000836686516523        0.002169271073725        0.073686141994881
        0.370089301955265       -0.000835041157733        0.002165020507750        0.073061869801985
        0.372508186281770       -0.000829951570505        0.002151839346640        0.072146276581798
        0.374927070608275       -0.000823289147417        0.002134580851008        0.071106668591372
        0.377345954934780       -0.000813196919058        0.002108429016982        0.069786015309135
        0.379764839261285       -0.000801504684556        0.002078129312763        0.068345753933121
        0.382183723587790       -0.000786448541373        0.002039106926819        0.066638637021699
        0.384602607914295       -0.000769785165607        0.001995917776896        0.064817651487620
        0.387021492240800       -0.000749875175461        0.001944309795415        0.062747695745937
        0.389440376567305       -0.000728371045617        0.001888568763498        0.060570862834424
        0.391859260893810       -0.000703788073623        0.001824843558837        0.058166367125603
        0.394278145220315       -0.000677644450917        0.001757071825335        0.055663140875045
        0.396697029546820       -0.000648638473430        0.001681876826649        0.052956657103149
        0.399115913873325       -0.000618125504421        0.001602774054671        0.050160633247289
        0.401534798199830       -0.000585012793114        0.001516928479316        0.047188485159517
        0.403953682526335       -0.000550466392263        0.001427364773375        0.044136907048492
        0.406372566852840       -0.000513625599902        0.001331849528334        0.040938656313403
        0.408791451179345       -0.000475443240060        0.001232854577505        0.037671869946927
        0.411210335505850       -0.000435310438977        0.001128799458786        0.034289737745668
        0.413629219832355       -0.000393945905841        0.001021549004464        0.030850604305355
        0.416048104158860       -0.000351008648813        0.000910217369388        0.027328857329999
        0.418466988485365       -0.000306965833815        0.000796017184487        0.023762132224717
        0.420885872811870       -0.000261756324653        0.000678788316513        0.020146442495599
        0.423304757138375       -0.000215582148103        0.000559055927208        0.016498130419616
        0.425723641464880       -0.000168669625411        0.000437405354664        0.012834918704184
        0.428142525791385       -0.000120946197454        0.000313649776782        0.009151614545169
        0.430561410117890       -0.000072928649463        0.000189127844700        0.005487387378459
        0.432980294444395       -0.000024264790420        0.000062927643882        0.001815612995907
        0.435399178770900        0.000024239868746       -0.000062863328496       -0.001803696636099
        0.437818063097405        0.000073217615159       -0.000189883311476       -0.005418149714824
        0.440236947423910        0.000121580767214       -0.000315312926825       -0.008947828064131
        0.442655831750415        0.000170237484603       -0.000441505817297       -0.012460540113827
        0.445074716076920        0.000217829278369       -0.000564940166986       -0.015857715019504
        0.447493600403425        0.000265531241869       -0.000688661874995       -0.019226254123319
        0.449912484729930        0.000311730160314       -0.000808488377500       -0.022450484713655
        0.452331369056435        0.000357854459075       -0.000928122590168       -0.025634988113196
        0.454750253382940        0.000402056825539       -0.001042774692909       -0.028648813104967
        0.457169137709445        0.000446000886150       -0.001156757629375       -0.031612525283907
        0.459588022035950        0.000487630153075       -0.001264738963530       -0.034381961811008
        0.462006906362455        0.000528821007033       -0.001371583480819       -0.037091721418352
        0.464425790688960        0.000567336672963       -0.001471491063673       -0.039586707136069
        0.466844675015465        0.000605239814383       -0.001569809708643       -0.042013375694573
        0.469263559341970        0.000640145820044       -0.001660355800197       -0.044208147831956
        0.471682443668475        0.000674273505429       -0.001748882416698       -0.046326974125244
