#     time (fs)  |  E_x (eV/ang)  | E_y (eV/ang) | E_z (eV/ang)
     0.00000000     0.00000000     0.00000000     0.00000000
     0.00241888     0.05385742     0.00000000     0.05385742
     0.00483777     0.10761294     0.00000000     0.10761294
     0.00725665     0.16116486     0.00000000     0.16116486
     0.00967554     0.21441187     0.00000000     0.21441187
     0.01209442     0.26725323     0.00000000     0.26725323
     0.01451331     0.31958896     0.00000000     0.31958896
     0.01693219     0.37132006     0.00000000     0.37132006
     0.01935107     0.42234864     0.00000000     0.42234864
     0.02176996     0.47257816     0.00000000     0.47257816
     0.02418884     0.52191360     0.00000000     0.52191360
     0.02660773     0.57026162     0.00000000     0.57026162
     0.02902661     0.61753074     0.00000000     0.61753074
     0.03144550     0.66363153     0.00000000     0.66363153
     0.03386438     0.70847678     0.00000000     0.70847678
     0.03628326     0.75198164     0.00000000     0.75198164
     0.03870215     0.79406380     0.00000000     0.79406380
     0.04112103     0.83464365     0.00000000     0.83464365
     0.04353992     0.87364440     0.00000000     0.87364440
     0.04595880     0.91099229     0.00000000     0.91099229
     0.04837769     0.94661663     0.00000000     0.94661663
     0.05079657     0.98045004     0.00000000     0.98045004
     0.05321546     1.01242851     0.00000000     1.01242851
     0.05563434     1.04249153     0.00000000     1.04249153
     0.05805322     1.07058223     0.00000000     1.07058223
     0.06047211     1.09664746     0.00000000     1.09664746
     0.06289099     1.12063791     0.00000000     1.12063791
     0.06530988     1.14250819     0.00000000     1.14250819
     0.06772876     1.16221692     0.00000000     1.16221692
     0.07014765     1.17972682     0.00000000     1.17972682
     0.07256653     1.19500475     0.00000000     1.19500475
     0.07498541     1.20802182     0.00000000     1.20802182
     0.07740430     1.21875339     0.00000000     1.21875339
     0.07982318     1.22717916     0.00000000     1.22717916
     0.08224207     1.23328319     0.00000000     1.23328319
     0.08466095     1.23705394     0.00000000     1.23705394
     0.08707984     1.23848426     0.00000000     1.23848426
     0.08949872     1.23757146     0.00000000     1.23757146
     0.09191760     1.23431726     0.00000000     1.23431726
     0.09433649     1.22872781     0.00000000     1.22872781
     0.09675537     1.22081369     0.00000000     1.22081369
     0.09917426     1.21058988     0.00000000     1.21058988
     0.10159314     1.19807571     0.00000000     1.19807571
     0.10401203     1.18329486     0.00000000     1.18329486
     0.10643091     1.16627531     0.00000000     1.16627531
     0.10884979     1.14704924     0.00000000     1.14704924
     0.11126868     1.12565303     0.00000000     1.12565303
     0.11368756     1.10212716     0.00000000     1.10212716
     0.11610645     1.07651614     0.00000000     1.07651614
     0.11852533     1.04886843     0.00000000     1.04886843
     0.12094422     1.01923633     0.00000000     1.01923633
     0.12336310     0.98767590     0.00000000     0.98767590
     0.12578198     0.95424686     0.00000000     0.95424686
     0.12820087     0.91901245     0.00000000     0.91901245
     0.13061975     0.88203933     0.00000000     0.88203933
     0.13303864     0.84339745     0.00000000     0.84339745
     0.13545752     0.80315992     0.00000000     0.80315992
     0.13787641     0.76140287     0.00000000     0.76140287
     0.14029529     0.71820530     0.00000000     0.71820530
     0.14271418     0.67364893     0.00000000     0.67364893
     0.14513306     0.62781806     0.00000000     0.62781806
     0.14755194     0.58079940     0.00000000     0.58079940
     0.14997083     0.53268191     0.00000000     0.53268191
     0.15238971     0.48355663     0.00000000     0.48355663
     0.15480860     0.43351648     0.00000000     0.43351648
     0.15722748     0.38265616     0.00000000     0.38265616
     0.15964637     0.33107187     0.00000000     0.33107187
     0.16206525     0.27886122     0.00000000     0.27886122
     0.16448413     0.22612298     0.00000000     0.22612298
     0.16690302     0.17295693     0.00000000     0.17295693
     0.16932190     0.11946366     0.00000000     0.11946366
     0.17174079     0.06574438     0.00000000     0.06574438
     0.17415967     0.01190071     0.00000000     0.01190071
     0.17657856    -0.04196548    -0.00000000    -0.04196548
     0.17899744    -0.09575227    -0.00000000    -0.09575227
     0.18141632    -0.14935790    -0.00000000    -0.14935790
     0.18383521    -0.20268096    -0.00000000    -0.20268096
     0.18625409    -0.25562056    -0.00000000    -0.25562056
     0.18867298    -0.30807655    -0.00000000    -0.30807655
     0.19109186    -0.35994967    -0.00000000    -0.35994967
     0.19351075    -0.41114179    -0.00000000    -0.41114179
     0.19592963    -0.46155606    -0.00000000    -0.46155606
     0.19834851    -0.51109710    -0.00000000    -0.51109710
     0.20076740    -0.55967118    -0.00000000    -0.55967118
     0.20318628    -0.60718640    -0.00000000    -0.60718640
     0.20560517    -0.65355286    -0.00000000    -0.65355286
     0.20802405    -0.69868285    -0.00000000    -0.69868285
     0.21044294    -0.74249097    -0.00000000    -0.74249097
     0.21286182    -0.78489436    -0.00000000    -0.78489436
     0.21528071    -0.82581277    -0.00000000    -0.82581277
     0.21769959    -0.86516881    -0.00000000    -0.86516881
     0.22011847    -0.90288800    -0.00000000    -0.90288800
     0.22253736    -0.93889900    -0.00000000    -0.93889900
     0.22495624    -0.97313366    -0.00000000    -0.97313366
     0.22737513    -1.00552721    -0.00000000    -1.00552721
     0.22979401    -1.03601838    -0.00000000    -1.03601838
     0.23221290    -1.06454947    -0.00000000    -1.06454947
     0.23463178    -1.09106651    -0.00000000    -1.09106651
     0.23705066    -1.11551932    -0.00000000    -1.11551932
     0.23946955    -1.13786165    -0.00000000    -1.13786165
     0.24188843    -1.15805122    -0.00000000    -1.15805122
     0.24430732    -1.17604984    -0.00000000    -1.17604984
     0.24672620    -1.19182345    -0.00000000    -1.19182345
     0.24914509    -1.20534221    -0.00000000    -1.20534221
     0.25156397    -1.21658055    -0.00000000    -1.21658055
     0.25398285    -1.22551720    -0.00000000    -1.22551720
     0.25640174    -1.23213526    -0.00000000    -1.23213526
     0.25882062    -1.23642219    -0.00000000    -1.23642219
     0.26123951    -1.23836991    -0.00000000    -1.23836991
     0.26365839    -1.23797471     0.00000000    -1.23797471
     0.26607728    -1.23523735     0.00000000    -1.23523735
     0.26849616    -1.23016300     0.00000000    -1.23016300
     0.27091504    -1.22276127     0.00000000    -1.22276127
     0.27333393    -1.21304616     0.00000000    -1.21304616
     0.27575281    -1.20103604     0.00000000    -1.20103604
     0.27817170    -1.18675365     0.00000000    -1.18675365
     0.28059058    -1.17022601     0.00000000    -1.17022601
     0.28300947    -1.15148437     0.00000000    -1.15148437
     0.28542835    -1.13056421     0.00000000    -1.13056421
     0.28784723    -1.10750509     0.00000000    -1.10750509
     0.29026612    -1.08235065     0.00000000    -1.08235065
     0.29268500    -1.05514848     0.00000000    -1.05514848
     0.29510389    -1.02595003     0.00000000    -1.02595003
     0.29752277    -0.99481057     0.00000000    -0.99481057
     0.29994166    -0.96178898     0.00000000    -0.96178898
     0.30236054    -0.92694776     0.00000000    -0.92694776
     0.30477943    -0.89035282     0.00000000    -0.89035282
     0.30719831    -0.85207339     0.00000000    -0.85207339
     0.30961719    -0.81218189     0.00000000    -0.81218189
     0.31203608    -0.77075380     0.00000000    -0.77075380
     0.31445496    -0.72786750     0.00000000    -0.72786750
     0.31687385    -0.68360412     0.00000000    -0.68360412
     0.31929273    -0.63804741     0.00000000    -0.63804741
     0.32171162    -0.59128356     0.00000000    -0.59128356
     0.32413050    -0.54340104     0.00000000    -0.54340104
     0.32654938    -0.49449044     0.00000000    -0.49449044
     0.32896827    -0.44464430     0.00000000    -0.44464430
     0.33138715    -0.39395693     0.00000000    -0.39395693
     0.33380604    -0.34252421     0.00000000    -0.34252421
     0.33622492    -0.29044346     0.00000000    -0.29044346
     0.33864381    -0.23781321     0.00000000    -0.23781321
     0.34106269    -0.18473304     0.00000000    -0.18473304
     0.34348157    -0.13130336     0.00000000    -0.13130336
     0.34590046    -0.07762527     0.00000000    -0.07762527
     0.34831934    -0.02380031     0.00000000    -0.02380031
     0.35073823     0.03006967     0.00000000     0.03006967
     0.35315711     0.08388276     0.00000000     0.08388276
     0.35557600     0.13753716     0.00000000     0.13753716
     0.35799488     0.19093134     0.00000000     0.19093134
     0.36041376     0.24396429     0.00000000     0.24396429
     0.36283265     0.29653568     0.00000000     0.29653568
     0.36525153     0.34854605     0.00000000     0.34854605
     0.36767042     0.39989699     0.00000000     0.39989699
     0.37008930     0.45049135     0.00000000     0.45049135
     0.37250819     0.50023341     0.00000000     0.50023341
     0.37492707     0.54902907     0.00000000     0.54902907
     0.37734595     0.59678599     0.00000000     0.59678599
     0.37976484     0.64341385     0.00000000     0.64341385
     0.38218372     0.68882440     0.00000000     0.68882440
     0.38460261     0.73293175     0.00000000     0.73293175
     0.38702149     0.77565244     0.00000000     0.77565244
     0.38944038     0.81690565     0.00000000     0.81690565
     0.39185926     0.85661333     0.00000000     0.85661333
     0.39427815     0.89470035     0.00000000     0.89470035
     0.39669703     0.93109467     0.00000000     0.93109467
     0.39911591     0.96572741     0.00000000     0.96572741
     0.40153480     0.99853307     0.00000000     0.99853307
     0.40395368     1.02944957     0.00000000     1.02944957
     0.40637257     1.05841842     0.00000000     1.05841842
     0.40879145     1.08538481     0.00000000     1.08538481
     0.41121034     1.11029773     0.00000000     1.11029773
     0.41362922     1.13311005     0.00000000     1.13311005
     0.41604810     1.15377860     0.00000000     1.15377860
     0.41846699     1.17226427     0.00000000     1.17226427
     0.42088587     1.18853210     0.00000000     1.18853210
     0.42330476     1.20255132     0.00000000     1.20255132
     0.42572364     1.21429538     0.00000000     1.21429538
     0.42814253     1.22374208     0.00000000     1.22374208
     0.43056141     1.23087355     0.00000000     1.23087355
     0.43298029     1.23567629     0.00000000     1.23567629
     0.43539918     1.23814121     0.00000000     1.23814121
     0.43781806     1.23826365     0.00000000     1.23826365
     0.44023695     1.23604338     0.00000000     1.23604338
     0.44265583     1.23148461     0.00000000     1.23148461
     0.44507472     1.22459595     0.00000000     1.22459595
     0.44749360     1.21539043     0.00000000     1.21539043
     0.44991248     1.20388548     0.00000000     1.20388548
     0.45233137     1.19010286     0.00000000     1.19010286
     0.45475025     1.17406865     0.00000000     1.17406865
     0.45716914     1.15581318     0.00000000     1.15581318
     0.45958802     1.13537099     0.00000000     1.13537099
     0.46200691     1.11278076     0.00000000     1.11278076
     0.46442579     1.08808522     0.00000000     1.08808522
     0.46684468     1.06133110     0.00000000     1.06133110
     0.46926356     1.03256901     0.00000000     1.03256901
     0.47168244     1.00185337     0.00000000     1.00185337
     0.47410133     0.96924230     0.00000000     0.96924230
     0.47652021     0.93479748     0.00000000     0.93479748
     0.47893910     0.89858409     0.00000000     0.89858409
     0.48135798     0.86067064     0.00000000     0.86067064
     0.48377687     0.82112886     0.00000000     0.82112886
     0.48619575     0.78003356     0.00000000     0.78003356
     0.48861463     0.73746249     0.00000000     0.73746249
     0.49103352     0.69349620     0.00000000     0.69349620
     0.49345240     0.64821785     0.00000000     0.64821785
     0.49587129     0.60171312     0.00000000     0.60171312
     0.49829017     0.55406999     0.00000000     0.55406999
     0.50070906     0.50537860     0.00000000     0.50537860
     0.50312794     0.45573107     0.00000000     0.45573107
     0.50554682     0.40522132     0.00000000     0.40522132
     0.50796571     0.35394492     0.00000000     0.35394492
     0.51038459     0.30199889     0.00000000     0.30199889
     0.51280348     0.24948149     0.00000000     0.24948149
     0.51522236     0.19649209     0.00000000     0.19649209
     0.51764125     0.14313094     0.00000000     0.14313094
     0.52006013     0.08949899     0.00000000     0.08949899
     0.52247901     0.03569772     0.00000000     0.03569772
     0.52489790    -0.01817108    -0.00000000    -0.01817108
     0.52731678    -0.07200551    -0.00000000    -0.07200551
     0.52973567    -0.12570371    -0.00000000    -0.12570371
     0.53215455    -0.17916409    -0.00000000    -0.17916409
     0.53457344    -0.23228550    -0.00000000    -0.23228550
     0.53699232    -0.28496744    -0.00000000    -0.28496744
     0.53941120    -0.33711024    -0.00000000    -0.33711024
     0.54183009    -0.38861526    -0.00000000    -0.38861526
     0.54424897    -0.43938503    -0.00000000    -0.43938503
     0.54666786    -0.48932353    -0.00000000    -0.48932353
     0.54908674    -0.53833625    -0.00000000    -0.53833625
     0.55150563    -0.58633049    -0.00000000    -0.58633049
     0.55392451    -0.63321542    -0.00000000    -0.63321542
     0.55634340    -0.67890235    -0.00000000    -0.67890235
     0.55876228    -0.72330485    -0.00000000    -0.72330485
     0.56118116    -0.76633890    -0.00000000    -0.76633890
     0.56360005    -0.80792310    -0.00000000    -0.80792310
     0.56601893    -0.84797875    -0.00000000    -0.84797875
     0.56843782    -0.88643009    -0.00000000    -0.88643009
     0.57085670    -0.92320437    -0.00000000    -0.92320437
     0.57327559    -0.95823200    -0.00000000    -0.95823200
     0.57569447    -0.99144672    -0.00000000    -0.99144672
     0.57811335    -1.02278570    -0.00000000    -1.02278570
     0.58053224    -1.05218963    -0.00000000    -1.05218963
     0.58295112    -1.07960290    -0.00000000    -1.07960290
     0.58537001    -1.10497363    -0.00000000    -1.10497363
     0.58778889    -1.12825382    -0.00000000    -1.12825382
     0.59020778    -1.14939943    -0.00000000    -1.14939943
     0.59262666    -1.16837046    -0.00000000    -1.16837046
     0.59504554    -1.18513102    -0.00000000    -1.18513102
     0.59746443    -1.19964938    -0.00000000    -1.19964938
     0.59988331    -1.21189809    -0.00000000    -1.21189809
     0.60230220    -1.22185397    -0.00000000    -1.22185397
     0.60472108    -1.22949819    -0.00000000    -1.22949819
     0.60713997    -1.23481628    -0.00000000    -1.23481628
     0.60955885    -1.23779819    -0.00000000    -1.23779819
     0.61197773    -1.23843826     0.00000000    -1.23843826
     0.61439662    -1.23673529     0.00000000    -1.23673529
     0.61681550    -1.23269251     0.00000000    -1.23269251
     0.61923439    -1.22631755     0.00000000    -1.22631755
     0.62165327    -1.21762248     0.00000000    -1.21762248
     0.62407216    -1.20662376     0.00000000    -1.20662376
     0.62649104    -1.19334219     0.00000000    -1.19334219
     0.62890992    -1.17780289     0.00000000    -1.17780289
     0.63132881    -1.16003527     0.00000000    -1.16003527
     0.63374769    -1.14007295     0.00000000    -1.14007295
     0.63616658    -1.11795368     0.00000000    -1.11795368
     0.63858546    -1.09371932     0.00000000    -1.09371932
     0.64100435    -1.06741572     0.00000000    -1.06741572
     0.64342323    -1.03909264     0.00000000    -1.03909264
     0.64584212    -1.00880367     0.00000000    -1.00880367
     0.64826100    -0.97660612     0.00000000    -0.97660612
     0.65067988    -0.94256089     0.00000000    -0.94256089
     0.65309877    -0.90673239     0.00000000    -0.90673239
     0.65551765    -0.86918843     0.00000000    -0.86918843
     0.65793654    -0.83000002     0.00000000    -0.83000002
     0.66035542    -0.78924130     0.00000000    -0.78924130
     0.66277431    -0.74698939     0.00000000    -0.74698939
     0.66519319    -0.70332424     0.00000000    -0.70332424
     0.66761207    -0.65832843     0.00000000    -0.65832843
     0.67003096    -0.61208712     0.00000000    -0.61208712
     0.67244984    -0.56468778     0.00000000    -0.56468778
     0.67486873    -0.51622009     0.00000000    -0.51622009
     0.67728761    -0.46677575     0.00000000    -0.46677575
     0.67970650    -0.41644830     0.00000000    -0.41644830
     0.68212538    -0.36533295     0.00000000    -0.36533295
     0.68454426    -0.31352642     0.00000000    -0.31352642
     0.68696315    -0.26112672     0.00000000    -0.26112672
     0.68938203    -0.20823299     0.00000000    -0.20823299
     0.69180092    -0.15494530     0.00000000    -0.15494530
     0.69421980    -0.10136445     0.00000000    -0.10136445
     0.69663869    -0.04759184     0.00000000    -0.04759184
     0.69905757     0.00627082     0.00000000     0.00627082
     0.70147645     0.06012161     0.00000000     0.06012161
     0.70389534     0.11385866     0.00000000     0.11385866
     0.70631422     0.16738029     0.00000000     0.16738029
     0.70873311     0.22058525     0.00000000     0.22058525
     0.71115199     0.27337288     0.00000000     0.27337288
     0.71357088     0.32564331     0.00000000     0.32564331
     0.71598976     0.37729764     0.00000000     0.37729764
     0.71840864     0.42823815     0.00000000     0.42823815
     0.72082753     0.47836846     0.00000000     0.47836846
     0.72324641     0.52759374     0.00000000     0.52759374
     0.72566530     0.57582084     0.00000000     0.57582084
     0.72808418     0.62295853     0.00000000     0.62295853
     0.73050307     0.66891762     0.00000000     0.66891762
     0.73292195     0.71361116     0.00000000     0.71361116
     0.73534084     0.75695461     0.00000000     0.75695461
     0.73775972     0.79886594     0.00000000     0.79886594
     0.74017860     0.83926588     0.00000000     0.83926588
     0.74259749     0.87807798     0.00000000     0.87807798
     0.74501637     0.91522882     0.00000000     0.91522882
     0.74743526     0.95064811     0.00000000     0.95064811
     0.74985414     0.98426884     0.00000000     0.98426884
     0.75227303     1.01602739     0.00000000     1.01602739
     0.75469191     1.04586370     0.00000000     1.04586370
     0.75711079     1.07372130     0.00000000     1.07372130
     0.75952968     1.09954749     0.00000000     1.09954749
     0.76194856     1.12329341     0.00000000     1.12329341
     0.76436745     1.14491414     0.00000000     1.14491414
     0.76678633     1.16436877     0.00000000     1.16436877
     0.76920522     1.18162050     0.00000000     1.18162050
     0.77162410     1.19663668     0.00000000     1.19663668
     0.77404298     1.20938890     0.00000000     1.20938890
     0.77646187     1.21985304     0.00000000     1.21985304
     0.77888075     1.22800931     0.00000000     1.22800931
     0.78129964     1.23384226     0.00000000     1.23384226
     0.78371852     1.23734087     0.00000000     1.23734087
     0.78613741     1.23849852     0.00000000     1.23849852
