#           time (fs)    |     mu_x (e.angstrom)   |     mu_y (e.angstrom)   |     mu_z (e.angstrom)   |
        0.000000000000000       -0.000000000000000       -0.000000000000000        0.000000000000000
        0.002418884326505       -0.000000000046700       -0.000000000155869       -0.000000961752928
        0.004837768653010       -0.000000000187338       -0.000000000623148       -0.000001922921866
        0.007256652979515       -0.000000000418753       -0.000000001394498       -0.000002868543879
        0.009675537306020        0.000000007398106        0.000000024608512        0.000037968230379
        0.012094421632525        0.000000019184333        0.000000063810699        0.000078762036151
        0.014513305959030        0.000000059125532        0.000000196670791        0.000202291721956
        0.016932190285535        0.000000110990805        0.000000369187872        0.000325489089512
        0.019351074612040        0.000000222418520        0.000000739836393        0.000570728722975
        0.021769958938545        0.000000357303059        0.000001188501327        0.000814964280103
        0.024188843265050        0.000000593394843        0.000001973823519        0.001218111075997
        0.026607727591555        0.000000867591672        0.000002885883939        0.001619056807780
        0.029026611918060        0.000001293440399        0.000004302397075        0.002212597317076
        0.031445496244565        0.000001774560802        0.000005902745092        0.002802083915394
        0.033864380571070        0.000002464801253        0.000008198699415        0.003613970891666
        0.036283264897575        0.000003229282036        0.000010741573844        0.004419180096646
        0.038702149224080        0.000004265303193        0.000014187670966        0.005472092747223
        0.041121033550585        0.000005395518151        0.000017947037523        0.006514836139076
        0.043539917877090        0.000006862331481        0.000022825997866        0.007825538175552
        0.045958802203595        0.000008443380247        0.000028084848675        0.009121636545724
        0.048377686530100        0.000010426223878        0.000034680091926        0.010700444908495
        0.050796570856605        0.000012542480492        0.000041718936662        0.012259220726033
        0.053215455183110        0.000015123247022        0.000050302666059        0.014109596043063
        0.055634339509615        0.000017854757796        0.000059387512254        0.015933489643559
        0.058053223836120        0.000021108339217        0.000070208514131        0.018051757409673
        0.060472108162625        0.000024527164566        0.000081578652805        0.020136075389852
        0.062890992489130        0.000028517811294        0.000094850136332        0.022511284547229
        0.065309876815635        0.000032684408986        0.000108706060486        0.024844086481444
        0.067728761142140        0.000037462201085        0.000124593868497        0.027458009585844
        0.070147645468645        0.000042421948804        0.000141085655660        0.030020136637675
        0.072566529795150        0.000048019476243        0.000159697175449        0.032847413161861
        0.074985414121655        0.000053799429404        0.000178913661054        0.035612659502887
        0.077404298448160        0.000060228774621        0.000200287753951        0.038621081122547
        0.079823182774665        0.000066834751185        0.000222246809899        0.041556506358048
        0.082242067101170        0.000074084861506        0.000246345060441        0.044707440356808
        0.084660951427675        0.000081498939311        0.000270985272980        0.047773818466675
        0.087079835754180        0.000089533469153        0.000297684833030        0.051022762758418
        0.089498720080685        0.000097711973191        0.000324858846547        0.054175160463180
        0.091917604407190        0.000106467666655        0.000353947117408        0.057472421232387
        0.094336488733695        0.000115339714071        0.000383416876676        0.060660896257133
        0.096755373060200        0.000124725387889        0.000414588233969        0.063952376925032
        0.099174257386705        0.000134192047566        0.000446022317683        0.067122784417600
        0.101593141713210        0.000144088222563        0.000478877040583        0.070350872606465
        0.104012026039715        0.000154022334204        0.000511850234736        0.073445766018316
        0.106430910366220        0.000164281550809        0.000545895754128        0.076550303447899
        0.108849794692725        0.000174528235640        0.000579890966060        0.079509914540132
        0.111268679019230        0.000184976075715        0.000614545496504        0.082429233373604
        0.113687563345735        0.000195353957565        0.000648958060383        0.085192514685561
        0.116106447672240        0.000205790781006        0.000683556629538        0.087864522757617
        0.118525331998745        0.000216093922613        0.000717701002710        0.090370234876447
        0.120944216325250        0.000226297313048        0.000751503840144        0.092733531480447
        0.123363100651755        0.000236297858167        0.000784622638245        0.094921356770041
        0.125781984978260        0.000246025757616        0.000816825834309        0.096916360240864
        0.128200869304765        0.000255477254920        0.000848101102112        0.098728024312098
        0.130619753631270        0.000264471752658        0.000877849397570        0.100298092496584
        0.133038637957775        0.000273113122623        0.000906415963116        0.101678474607261
        0.135457522284280        0.000281104848749        0.000932817482350        0.102770999441367
        0.137876406610785        0.000288664939850        0.000957778194627        0.103669213181390
        0.140295290937290        0.000295377999413        0.000979920890048        0.104236670969709
        0.142714175263795        0.000301580665190        0.001000363496048        0.104607096994772
        0.145133059590300        0.000306738034381        0.001017333029517        0.104608036594368
        0.147551943916805        0.000311307648546        0.001032348405515        0.104411289803916
        0.149970828243310        0.000314636940688        0.001043247154698        0.103811241736538
        0.152389712569815        0.000317304253795        0.001051948569667        0.103015056138932
        0.154808596896320        0.000318543750108        0.001055915413935        0.101787346685626
        0.157227481222825        0.000319051978792        0.001057458470851        0.100367362251255
        0.159646365549330        0.000317956807584        0.001053688983234        0.098493817818927
        0.162065249875835        0.000316067836508        0.001047291857236        0.096434254891126
        0.164484134202340        0.000312416175078        0.001035058506764        0.093905783383423
        0.166903018528845        0.000307916743027        0.001020022078505        0.091199991701111
        0.169321902855350        0.000301515909660        0.000998694031644        0.088017029279174
        0.171740787181855        0.000294223645211        0.000974421500427        0.084667900367448
        0.174159671508360        0.000284915944709        0.000943483602051        0.080840713851028
        0.176578555834865        0.000274685113996        0.000909499157125        0.076860947456716
        0.178997440161370        0.000262353299579        0.000868569671110        0.072409784689445
        0.181416324487875        0.000249080129324        0.000824535801532        0.067822002071535
        0.183835208814380        0.000233652346822        0.000773382499171        0.062777084844387
        0.186254093140885        0.000217279790108        0.000719115533325        0.057613784058948
        0.188672977467390        0.000198733877150        0.000657669734733        0.052015140631888
        0.191091861793895        0.000179255697552        0.000593153220290        0.046318491451533
        0.193510746120400        0.000157622720968        0.000521521419917        0.040215628302435
        0.195929630446905        0.000135086782353        0.000446916983736        0.034037107043872
        0.198348514773410        0.000110453710970        0.000365389725922        0.027488522162269
        0.200767399099915        0.000084964375264        0.000281045090947        0.020888389413654
        0.203186283426420        0.000057475802160        0.000190102804744        0.013960932190980
        0.205605167752925        0.000029195355154        0.000096556686786        0.007007559175915
        0.208024052079430       -0.000000945797253       -0.000003127759731       -0.000224355337896
        0.210442936405935       -0.000031796752201       -0.000105144099106       -0.007455303314830
        0.212861820732440       -0.000064329589943       -0.000212706306985       -0.014910615382167
        0.215280705058945       -0.000097472809240       -0.000322271015538       -0.022337127359534
        0.217699589385450       -0.000132079911363       -0.000436659544199       -0.029929175859543
        0.220118473711955       -0.000167181276798       -0.000552665741341       -0.037463962030535
        0.222537358038460       -0.000203491228755       -0.000672650230155       -0.045101634928332
        0.224956242364965       -0.000240163597089       -0.000793815207391       -0.052653296155818
        0.227375126691470       -0.000277754593759       -0.000917998110847       -0.060242270962531
        0.229794011017975       -0.000315561705338       -0.001042876130806       -0.067716553398388
        0.232212895344480       -0.000353966184477       -0.001169707977648       -0.075160608760672
        0.234631779670985       -0.000392427586626       -0.001296706561350       -0.082461724383825
        0.237050663997490       -0.000431137835204       -0.001424504577856       -0.089664102607964
        0.239469548323995       -0.000469734758593       -0.001551904100198       -0.096696095269958
        0.241888432650500       -0.000508209418076       -0.001678873969782       -0.103560894629654
        0.244307316977005       -0.000546391528609       -0.001804850316217       -0.110229030350269
        0.246726201303510       -0.000584062910793       -0.001929110783151       -0.116662605459544
        0.249145085630015       -0.000621255845806       -0.002051760757505       -0.122874765254378
        0.251563969956520       -0.000657537958293       -0.002171370723062       -0.128787113606816
        0.253982854283025       -0.000693151543810       -0.002288739838573       -0.134455167049415
        0.256401738609530       -0.000727448713369       -0.002401727544300       -0.139761280021263
        0.258820622936035       -0.000760885748651       -0.002511839778287       -0.144802418030540
        0.261239507262540       -0.000792601721259       -0.002616233624429       -0.149423575198970
        0.263658391589045       -0.000823267207554       -0.002717122672322       -0.153761581177817
        0.266077275915550       -0.000851814595555       -0.002810983180235       -0.157626567692298
        0.268496160242055       -0.000879125277533       -0.002900724707756       -0.161193007100291
        0.270915044568560       -0.000903935216885       -0.002982177104193       -0.164239235036366
        0.273333928895065       -0.000927329297619       -0.003058921467743       -0.166974544730542
        0.275752813221570       -0.000947861171397       -0.003126188346451       -0.169149060821784
        0.278171697548075       -0.000966808054720       -0.003188193231723       -0.171003521015948
        0.280590581874580       -0.000982559133014       -0.003239626734412       -0.172263884871572
        0.283009466201085       -0.000996569040890       -0.003285289152195       -0.173198458318086
        0.285428350527590       -0.001007083882055       -0.003319402106604       -0.173513477161460
        0.287847234854095       -0.001015717189339       -0.003347289182941       -0.173500502122145
        0.290266119180600       -0.001020596643616       -0.003362784640843       -0.172850810201103
        0.292685003507105       -0.001023472768840       -0.003371662646230       -0.171874535918814
        0.295103887833610       -0.001022382423115       -0.003367461278652       -0.170253009014561
        0.297522772160115       -0.001019188112067       -0.003356322357974       -0.168309964697406
        0.299941656486620       -0.001011866014531       -0.003331587188723       -0.165721962567488
        0.302360540813125       -0.001002362854170       -0.003299673279935       -0.162821153326510
        0.304779425139630       -0.000988626360561       -0.003253831271522       -0.159284585430722
        0.307198309466135       -0.000972657364718       -0.003200654736604       -0.155447511140801
        0.309617193792640       -0.000952408954132       -0.003133414784561       -0.150992723587303
        0.312036078119145       -0.000929904070124       -0.003058775320663       -0.146253219239981
        0.314454962445650       -0.000903135988654       -0.002970142262619       -0.140922703520841
        0.316873846772155       -0.000874116385732       -0.002874139714015       -0.135326602274058
        0.319292731098660       -0.000840913990731       -0.002764424018119       -0.129174529000792
        0.321711615425165       -0.000805495007448       -0.002647466770090       -0.122779151769153
        0.324130499751670       -0.000766038703985       -0.002517289632705       -0.115870735233255
        0.326549384078175       -0.000724431352101       -0.002380098335768       -0.108744213265838
        0.328968268404680       -0.000678997036221       -0.002230391989805       -0.101154915198444
        0.331387152731185       -0.000631507983299       -0.002073998435968       -0.093375354620045
        0.333806037057690       -0.000580465933361       -0.001906001547739       -0.085189937969026
        0.336224921384195       -0.000527495914296       -0.001731742598406       -0.076844437674818
        0.338643805710700       -0.000471308101400       -0.001546990711176       -0.068155883516866
        0.341062690037205       -0.000413348739862       -0.001356497257731       -0.059339420069534
        0.343481574363710       -0.000352564560219       -0.001156808322871       -0.050247722890083
        0.345900458690215       -0.000290193613463       -0.000951989344408       -0.041061918133672
        0.348319343016720       -0.000225444078404       -0.000739444464741       -0.031672776601728
        0.350738227343225       -0.000159319151933       -0.000522466331411       -0.022224565541325
        0.353157111669730       -0.000091309603991       -0.000299385924520       -0.012647987545700
        0.355575995996235       -0.000022160414985       -0.000072647178001       -0.003048205613780
        0.357994880322740        0.000048338130123        0.000158437151608        0.006602952317792
        0.360413764649245        0.000119718831037        0.000392335228425        0.016241042207131
        0.362832648975750        0.000191879587713        0.000628712741862        0.025852579938414
        0.365251533302255        0.000264646298939        0.000866999377317        0.035414799180154
        0.367670417628760        0.000337597705888        0.001105815739513        0.044872700560360
        0.370089301955265        0.000410863499991        0.001345587287864        0.054245483492523
        0.372508186281770        0.000483701129410        0.001583883086249        0.063437444249803
        0.374927070608275        0.000556549839495        0.001822142480312        0.072509361337025
        0.377345954934780        0.000628349028569        0.002056894160167        0.081326294976357
        0.379764839261285        0.000699848099349        0.002290592621134        0.089989548304782
        0.382183723587790        0.000769677099347        0.002518755224054        0.098327048031132
        0.384602607914295        0.000838890896034        0.002744835600306        0.106478917277578
        0.387021492240800        0.000905824327155        0.002963386652115        0.114238652622349
        0.389440376567305        0.000971827689645        0.003178827721478        0.121782870400512
        0.391859260893810        0.001034960087122        0.003384811586442        0.128873898216065
        0.394278145220315        0.001096851915608        0.003586672629675        0.135721934767686
        0.396697029546820        0.001155311153998        0.003777244629475        0.142061905553758
        0.399115913873325        0.001212227814545        0.003962709567496        0.148134144124872
        0.401534798199830        0.001265188202069        0.004135179156720        0.153650386239965
        0.403953682526335        0.001316316546307        0.004301599540509        0.158877172138176
        0.406372566852840        0.001363011388788        0.004453471835468        0.163507638301632
        0.408791451179345        0.001407601189963        0.004598407985912        0.167830186542103
        0.411210335505850        0.001447334633874        0.004727422960573        0.171524249118037
        0.413629219832355        0.001484710251532        0.004848682575705        0.174895397702224
        0.416048104158860        0.001516868227158        0.004952851267156        0.177614481540747
        0.418466988485365        0.001546439324240        0.005048524846102        0.179999279738172
        0.420885872811870        0.001570499422732        0.005126161951930        0.181717323795952
        0.423304757138375        0.001591770571400        0.005194654427939        0.183093447278786
        0.425723641464880        0.001607310703177        0.005244406728614        0.183797188811613
        0.428142525791385        0.001619889729233        0.005284464757211        0.184155176085929
        0.430561410117890        0.001626595425756        0.005305334857293        0.183844253861158
        0.432980294444395        0.001630200355976        0.005316069269136        0.183187561108175
        0.435399178770900        0.001627870592410        0.005307434220998        0.181874436785019
        0.437818063097405        0.001622335084712        0.005288337221415        0.180219310930951
        0.440236947423910        0.001610886517706        0.005249961673111        0.177929010462092
        0.442655831750415        0.001596163671070        0.005200918450606        0.175304182997263
        0.445074716076920        0.001575633204059        0.005132962044425        0.172073862577485
        0.447493600403425        0.001551797663846        0.005054256537342        0.168520069305869
        0.449912484729930        0.001522343272322        0.004957275376148        0.164398412994912
        0.452331369056435        0.001489591567515        0.004849590039019        0.159967747477195
        0.454750253382940        0.001451491338880        0.004724532132410        0.155014206118552
        0.457169137709445        0.001410140410922        0.004588941639821        0.149769317039093
        0.459588022035950        0.001363789778038        0.004437136339881        0.144053200449321
        0.462006906362455        0.001314273686655        0.004275095264516        0.138066345455611
        0.464425790688960        0.001260180861105        0.004098236800115        0.131665782036425
        0.466844675015465        0.001203045680561        0.003911561401462        0.125017752735124
        0.469263559341970        0.001141825320666        0.003711686718953        0.118018532630990
        0.471682443668475        0.001077722270156        0.003502531078290        0.110797467345202
