#           time (fs)    |     mu_x (e.angstrom)   |     mu_y (e.angstrom)   |     mu_z (e.angstrom)   |
        0.000000000000000       -0.000000000000000       -0.000000000000000        0.000000000000000
        0.002418884326505        0.000000000331275       -0.000000000179212       -0.000008093503906
        0.004837768653010       -0.000000068988773        0.000000037320750        0.000842708403181
        0.007256652979515       -0.000000207981099        0.000000112511243        0.001693670030888
        0.009675537306020       -0.000000557856050        0.000000301782646        0.003407103415191
        0.012094421632525       -0.000001048034769        0.000000566954353        0.005120661142415
        0.014513305959030       -0.000001887687138        0.000001021181333        0.007685924302277
        0.016932190285535       -0.000002937330853        0.000001589009864        0.010251073018738
        0.019351074612040       -0.000004467739578        0.000002416923428        0.013642984246007
        0.021769958938545       -0.000006275655184        0.000003394971659        0.017034337064750
        0.024188843265050       -0.000008683832539        0.000004697765802        0.021213735852444
        0.026607727591555       -0.000011433667226        0.000006185423254        0.025391931990425
        0.029026611918060       -0.000014887248865        0.000008053849760        0.030306317072869
        0.031445496244565       -0.000018742137179        0.000010139463313        0.035218666212799
        0.033864380571070       -0.000023384414581        0.000012651176262        0.040803059162083
        0.036283264897575       -0.000028482088528        0.000015409441864        0.046384410685104
        0.038702149224080       -0.000034427602947        0.000018626655812        0.052562429519160
        0.041121033550585       -0.000040876082456        0.000022116333448        0.058736250794635
        0.043539917877090       -0.000048206886469        0.000026083850537        0.065421374186095
        0.045958802203595       -0.000056080854120        0.000030345855740        0.072101018322458
        0.048377686530100       -0.000064843531429        0.000035089506952        0.079198017629560
        0.050796570856605       -0.000074181479603        0.000040145422017        0.086288157815594
        0.053215455183110       -0.000084384996307        0.000045670956925        0.093694671355419
        0.055634339509615       -0.000095187217288        0.000051521994127        0.101092876213539
        0.058053223836120       -0.000106801658972        0.000057814442175        0.108701098003301
        0.060472108162625       -0.000119029129566        0.000064440880122        0.116299520266368
        0.062890992489130       -0.000131985358685        0.000071464395194        0.123997973882770
        0.065309876815635       -0.000145559551049        0.000078825498439        0.131685123198830
        0.067728761142140       -0.000159749798779        0.000086523687546        0.139360490437030
        0.070147645468645       -0.000174553428882        0.000094558108958        0.147023060185923
        0.072566529795150       -0.000189832815258        0.000102854835646        0.154562033808318
        0.074985414121655       -0.000205711520208        0.000111481491177        0.162086751448159
        0.077404298448160       -0.000221900476437        0.000120282134922        0.169377881456421
        0.079823182774665       -0.000238665392074        0.000129401531423        0.176653352064477
        0.082242067101170       -0.000255552939767        0.000138594675962        0.183588855556819
        0.084660951427675       -0.000272984130940        0.000148090664721        0.190507368842022
        0.087079835754180       -0.000290331954907        0.000157550181049        0.196984874581253
        0.089498720080685       -0.000308182632958        0.000167292102775        0.203444146678510
        0.091917604407190       -0.000325729867551        0.000176879586367        0.209368346947185
        0.094336488733695       -0.000343731312959        0.000186724767323        0.215273169714337
        0.096755373060200       -0.000361199946862        0.000196292283963        0.220557353828434
        0.099174257386705       -0.000379067040135        0.000206088837917        0.225821126117700
        0.101593141713210       -0.000396167831299        0.000215481928181        0.230388572072434
        0.104012026039715       -0.000413605082110        0.000225071814477        0.234934689506786
        0.106430910366220       -0.000430043863354        0.000234132703372        0.238719892604875
        0.108849794692725       -0.000446751816901        0.000243354987760        0.242482974727080
        0.111268679019230       -0.000462236063731        0.000251925943031        0.245432694661297
        0.113687563345735       -0.000477917954529        0.000260620204768        0.248359630911707
        0.116106447672240       -0.000492163480140        0.000268546984939        0.250433741610896
        0.118525331998745       -0.000506531996993        0.000276556810938        0.252484540401091
        0.120944216325250       -0.000519269635301        0.000283692142101        0.253656669971157
        0.123363100651755       -0.000532053657287        0.000290868646607        0.254805098123047
        0.125781984978260       -0.000543035793260        0.000297075665321        0.255063049387713
        0.128200869304765       -0.000553986955201        0.000303280971624        0.255297052366214
        0.130619753631270       -0.000562993762807        0.000308436570039        0.254642997798234
        0.133038637957775       -0.000571892709910        0.000313547189200        0.253964894440434
        0.135457522284280       -0.000578737961617        0.000317545197718        0.252415342630226
        0.137876406610785       -0.000585400156840        0.000321455238249        0.250841791421567
        0.140295290937290       -0.000589936474799        0.000324209380802        0.248427325611957
        0.142714175263795       -0.000594217428849        0.000326833522820        0.245989062934891
        0.145133059590300       -0.000596340856490        0.000328280080355        0.242753855512194
        0.147551943916805       -0.000598140659229        0.000329556248154        0.239495209649793
        0.149970828243310       -0.000597794442965        0.000329656367277        0.235496319778755
        0.152389712569815       -0.000597061486132        0.000329548035613        0.231474507752198
        0.154808596896320       -0.000594238969996        0.000328289621840        0.226780972535144
        0.157227481222825       -0.000590972764490        0.000326787693889        0.222065190051682
        0.159646365549330       -0.000585719315601        0.000324186832726        0.216756922645909
        0.162065249875835       -0.000579972321908        0.000321311031662        0.211427240500523
        0.164484134202340       -0.000572386221555        0.000317412886026        0.205593751513766
        0.166903018528845       -0.000564264629019        0.000313212607839        0.199739834696760
        0.169321902855350       -0.000554496882617        0.000308091747238        0.193478795875472
        0.171740787181855       -0.000544160292003        0.000302646329834        0.187198464367981
        0.174159671508360       -0.000532413331015        0.000296406455447        0.180614136078039
        0.176578555834865       -0.000520073314970        0.000289824828344        0.174011788848684
        0.178997440161370       -0.000506598584820        0.000282597868624        0.167213335104888
        0.181416324487875       -0.000492516122157        0.000275017558727        0.160398261133764
        0.183835208814380       -0.000477610572041        0.000266962122451        0.153497977943104
        0.186254093140885       -0.000462092374019        0.000258547604378        0.146582580170264
        0.188672977467390       -0.000446093886953        0.000249846791952        0.139694064688923
        0.191091861793895       -0.000429487656591        0.000240787185944        0.132792024582605
        0.193510746120400       -0.000412769480737        0.000231645775032        0.126028314014484
        0.195929630446905       -0.000395458169333        0.000222151911420        0.119252725939433
        0.198348514773410       -0.000378422434249        0.000212792949214        0.112724436181861
        0.200767399099915       -0.000360817582204        0.000203093835187        0.106185941870040
        0.203186283426420       -0.000343888005605        0.000193754686399        0.099999436588048
        0.205605167752925       -0.000326422276981        0.000184093427975        0.093804390713938
        0.208024052079430       -0.000310036188470        0.000175021344270        0.088060011739437
        0.210442936405935       -0.000293155229701        0.000165650593266        0.082308709815562
        0.212861820732440       -0.000277755057025        0.000157097885760        0.077099099460702
        0.215280705058945       -0.000261908829376        0.000148274897458        0.071884098931457
        0.217699589385450       -0.000247933209506        0.000140493808395        0.067292643918879
        0.220118473711955       -0.000233566961484        0.000132475209836        0.062697208384199
        0.222537358038460       -0.000221441652536        0.000125712591821        0.058796633584399
        0.224956242364965       -0.000208986711846        0.000118748972525        0.054893328485523
        0.227375126691470       -0.000199115491955        0.000113240893191        0.051744466485010
        0.229794011017975       -0.000188980066167        0.000107571338911        0.048593932310588
        0.232212895344480       -0.000181735811303        0.000103537735048        0.046244692011374
        0.234631779670985       -0.000174295991621        0.000099384430490        0.043894618139666
        0.237050663997490       -0.000170012125679        0.000097023938002        0.042379172138852
        0.239469548323995       -0.000165603288674        0.000094586965843        0.040863490859530
        0.241888432650500       -0.000164565795562        0.000094072050250        0.040201697338928
        0.244307316977005       -0.000163474593294        0.000093524511158        0.039540013469186
        0.246726201303510       -0.000165914772290        0.000094997017718        0.039737083833663
        0.249145085630015       -0.000168371891803        0.000096480589445        0.039934350763671
        0.251563969956520       -0.000174460024148        0.000100047822451        0.040980769427684
        0.253982854283025       -0.000180633883202        0.000103668865705        0.042027217533518
        0.256401738609530       -0.000190473960211        0.000109400293594        0.043898915215499
        0.258820622936035       -0.000200465487635        0.000115226598787        0.045770233517172
        0.261239507262540       -0.000214091129009        0.000123151265945        0.048429010322354
        0.263658391589045       -0.000227929755863        0.000131209518665        0.051086777204212
        0.266077275915550       -0.000245301422139        0.000141314226933        0.054480966822602
        0.268496160242055       -0.000262942384723        0.000151588251890        0.057873320735948
        0.270915044568560       -0.000283945960704        0.000163816555588        0.061938682409974
        0.273333928895065       -0.000305268989125        0.000176246379631        0.066001218894289
        0.275752813221570       -0.000329715786529        0.000190498418294        0.070662039558265
        0.278171697548075       -0.000354525223978        0.000204980173733        0.075318916777000
        0.280590581874580       -0.000382153422378        0.000221113347412        0.080489302049352
        0.283009466201085       -0.000410179791216        0.000237500018041        0.085654533439397
        0.285428350527590       -0.000440657307361        0.000255330491780        0.091239863037439
        0.287847234854095       -0.000471560309478        0.000273433486373        0.096818772684747
        0.290266119180600       -0.000504489057007        0.000292738493791        0.102717293374636
        0.292685003507105       -0.000537861968210        0.000312330015884        0.108608107384795
        0.295103887833610       -0.000572783443240        0.000332850917153        0.114712634786278
        0.297522772160115       -0.000608158835282        0.000353667086030        0.120808180218175
        0.299941656486620       -0.000644560938728        0.000375113123113        0.127007879634975
        0.302360540813125       -0.000681417638369        0.000396857789155        0.133197361481404
        0.304779425139630       -0.000718742623497        0.000418910471037        0.139379577380272
        0.307198309466135       -0.000756513795900        0.000441259659013        0.145550403564242
        0.309617193792640       -0.000794167209682        0.000463577701682        0.151602507319654
        0.312036078119145       -0.000832249433751        0.000486184607987        0.157642131670102
        0.314454962445650       -0.000869609903173        0.000508409347866        0.163453357660796
        0.316873846772155       -0.000907373089081        0.000530909811839        0.169251111272867
        0.319292731098660       -0.000943802788723        0.000552671006948        0.174714352294293
        0.321711615425165       -0.000980600773029        0.000574689371961        0.180163234506736
        0.324130499751670       -0.001015456397891        0.000595611301899        0.185176768689965
        0.326549384078175       -0.001050638039210        0.000616766578520        0.190175170072830
        0.328968268404680       -0.001083282097081        0.000636474352075        0.194644293025872
        0.331387152731185       -0.001116202685392        0.000656386592913        0.199097624224294
        0.333806037057690       -0.001146014915884        0.000674512570435        0.202936161898864
        0.336224921384195       -0.001176047701253        0.000692809364113        0.206758363894034
        0.338643805710700       -0.001202436424217        0.000708999600469        0.209890043704531
        0.341062690037205       -0.001228984066090        0.000725322590190        0.213004957012653
        0.343481574363710       -0.001251397260464        0.000739243203030        0.215364616979034
        0.345900458690215       -0.001273902996927        0.000753254533520        0.217707189502671
        0.348319343016720       -0.001291838912309        0.000764597900710        0.219241807645850
        0.350738227343225       -0.001309797249930        0.000775986495780        0.220759123313137
        0.353157111669730       -0.001322814357504        0.000784477185238        0.221428652193125
        0.355575995996235       -0.001335781086725        0.000792964757042        0.222080765161872
        0.357994880322740       -0.001343507183597        0.000798365092042        0.221858759305088
        0.360413764649245       -0.001351108532236        0.000803711782480        0.221619321359379
        0.362832648975750       -0.001353248823928        0.000805826945988        0.220493348356346
        0.365251533302255       -0.001355189572249        0.000807836500877        0.219350020163796
        0.367670417628760       -0.001351533571949        0.000806519083933        0.217321849406956
        0.370089301955265       -0.001347603966900        0.000805043461873        0.215276489506716
        0.372508186281770       -0.001338031067054        0.000800197363771        0.212362055845834
        0.374927070608275       -0.001328112390591        0.000795140684390        0.209430684562399
        0.377345954934780       -0.001312595982309        0.000786724276710        0.205659827538343
        0.379764839261285       -0.001296664648938        0.000778046017445        0.201872366417135
        0.382183723587790       -0.001275274687239        0.000766074490161        0.197288349142420
        0.384602607914295       -0.001253404768805        0.000753791847286        0.192688139926430
        0.387021492240800       -0.001226308706555        0.000738338663433        0.187346955057092
        0.389440376567305       -0.001198672807492        0.000722528001767        0.181990065612738
        0.391859260893810       -0.001166134847621        0.000703725397665        0.175959539143483
        0.394278145220315       -0.001133003280884        0.000684522724583        0.169913867041008
        0.396697029546820       -0.001095381924637        0.000662561205471        0.163272573798703
        0.399115913873325       -0.001057120167025        0.000640161618392        0.156616761403675
        0.401534798199830       -0.001014864065144        0.000615288414481        0.149452769061845
        0.403953682526335       -0.000971928500123        0.000589944486992        0.142274946950152
        0.406372566852840       -0.000925570643476        0.000562460952350        0.134684408094173
        0.408791451179345       -0.000878502629546        0.000534480042358        0.127080786320160
        0.411210335505850       -0.000828652945412        0.000504737998378        0.119166400520844
        0.413629219832355       -0.000778071278008        0.000474478481875        0.111239729709944
        0.416048104158860       -0.000725407727469        0.000442875528121        0.103109099679973
        0.418466988485365       -0.000671999591946        0.000410741983991        0.094967026051724
        0.420885872811870       -0.000617257892214        0.000377715821450        0.086730933737675
        0.423304757138375       -0.000561768434161        0.000344153215696        0.078484273964702
        0.425723641464880       -0.000505730556738        0.000310175050377        0.070254903843178
        0.428142525791385       -0.000448951223227        0.000275661991712        0.062015867089100
        0.430561410117890       -0.000392432844074        0.000241229109514        0.053905004962869
        0.432980294444395       -0.000335188675027        0.000206270271638        0.045785390493910
        0.435399178770900       -0.000279025775935        0.000171897897716        0.037902626708091
        0.437818063097405       -0.000222161848016        0.000137015726230        0.030012026110228
        0.440236947423910       -0.000167196688609        0.000103228302975        0.022462992291369
        0.442655831750415       -0.000111563934444        0.000068954145776        0.014907025518421
        0.445074716076920       -0.000058630631168        0.000036276182222        0.007791693670439
        0.447493600403425       -0.000005071273628        0.000003141000752        0.000670307874935
        0.449912484729930        0.000045018764855       -0.000027912338069       -0.005918620084872
        0.452331369056435        0.000095685910627       -0.000059387504046       -0.012512760754219
        0.454750253382940        0.000142158433495       -0.000088319887259       -0.018491346183245
        0.457169137709445        0.000189152529209       -0.000117633517300       -0.024474352912495
        0.459588022035950        0.000231284517011       -0.000143976829559       -0.029768771271667
        0.462006906362455        0.000273876876992       -0.000170656391636       -0.035066879932649
        0.464425790688960        0.000311009978018       -0.000193979814502       -0.039614606425982
        0.466844675015465        0.000348537589050       -0.000217590912572       -0.044165361145177
        0.469263559341970        0.000380090664735       -0.000237509516744       -0.047916171072785
        0.471682443668475        0.000411968794910       -0.000257664526958       -0.051669422005562
