#           time (fs)    |     mu_x (e.angstrom)   |     mu_y (e.angstrom)   |     mu_z (e.angstrom)   |
        0.000000000000000       -0.000000000000000       -0.000000000000000        0.000000000000000
        0.002418884326505        0.000000001621071        0.000000000460911        0.000061759995754
        0.004837768653010        0.000000031236298        0.000000008869488        0.000594905377660
        0.007256652979515        0.000000088706101        0.000000025194115        0.001126615613361
        0.009675537306020        0.000000222677893        0.000000063234094        0.002121438618256
        0.012094421632525        0.000000408230069        0.000000115939963        0.003112124789007
        0.014513305959030        0.000000715906412        0.000000203302901        0.004548896446743
        0.016932190285535        0.000001097300894        0.000000311636368        0.005977658487114
        0.019351074612040        0.000001641731131        0.000000466224101        0.007827036276194
        0.021769958938545        0.000002279771329        0.000000647453790        0.009663455767406
        0.024188843265050        0.000003115353522        0.000000884708415        0.011887033637734
        0.026607727591555        0.000004061593529        0.000001153471497        0.014091747460583
        0.029026611918060        0.000005231954934        0.000001485770385        0.016642763356678
        0.031445496244565        0.000006526652967        0.000001853487676        0.019168192060023
        0.033864380571070        0.000008062814942        0.000002289618262        0.021992379210621
        0.036283264897575        0.000009733182038        0.000002763992379        0.024783595993161
        0.038702149224080        0.000011652052715        0.000003308719530        0.027820161917090
        0.041121033550585        0.000013710837529        0.000003893328349        0.030815885913987
        0.043539917877090        0.000016014066828        0.000004547064889        0.033998601178539
        0.045958802203595        0.000018458508631        0.000005241060267        0.037132296939493
        0.048377686530100        0.000021131731105        0.000005999648853        0.040390674210995
        0.050796570856605        0.000023942904101        0.000006797568207        0.043591737861877
        0.053215455183110        0.000026955386013        0.000007652180229        0.046852280708167
        0.055634339509615        0.000030097949226        0.000008543876003        0.050047292297188
        0.058053223836120        0.000033402647476        0.000009481030611        0.053234792520688
        0.060472108162625        0.000036825005962        0.000010451720114        0.056348813440561
        0.062890992489130        0.000040359038194        0.000011453423875        0.059387675409019
        0.065309876815635        0.000043993913318        0.000012483859410        0.062345569526948
        0.067728761142140        0.000047679430828        0.000013527864558        0.065161139989913
        0.070147645468645        0.000051444829961        0.000014594621210        0.067888897171040
        0.072566529795150        0.000055190278012        0.000015654797969        0.070408779364940
        0.074985414121655        0.000058990847167        0.000016730674009        0.072834820405704
        0.077404298448160        0.000062692590824        0.000017777490119        0.074990151822803
        0.079823182774665        0.000066421327412        0.000018832012633        0.077046594386360
        0.082242067101170        0.000069965615027        0.000019833110977        0.078773268382776
        0.084660951427675        0.000073505911990        0.000020833137155        0.080397134324255
        0.087079835754180        0.000076771142840        0.000021754000350        0.081636946747887
        0.089498720080685        0.000079999129742        0.000022664402852        0.082771292216599
        0.091917604407190        0.000082858386928        0.000023469091807        0.083472995434440
        0.094336488733695        0.000085645528077        0.000024253514824        0.084067946335519
        0.096755373060200        0.000087969332588        0.000024905466645        0.084188194426696
        0.099174257386705        0.000090185236889        0.000025527137680        0.084201871215393
        0.101593141713210        0.000091844473638        0.000025990006910        0.083706041672338
        0.104012026039715        0.000093359865645        0.000026412587974        0.083105359043919
        0.106430910366220        0.000094228827449        0.000026651114069        0.081968238092904
        0.108849794692725        0.000094918624101        0.000026839574959        0.080729566924105
        0.111268679019230        0.000094878115045        0.000026820458096        0.078935887540223
        0.113687563345735        0.000094624548003        0.000026741953669        0.077045568435710
        0.116106447672240        0.000093564983727        0.000026434720526        0.074590392283536
        0.118525331998745        0.000092260703364        0.000026059453534        0.072045092277323
        0.120944216325250        0.000090085142673        0.000025437294556        0.068934029146003
        0.123363100651755        0.000087636236856        0.000024739345544        0.065740935488238
        0.125781984978260        0.000084263277164        0.000023779905505        0.061990196287009
        0.128200869304765        0.000080592136390        0.000022738011662        0.058167043784543
        0.130619753631270        0.000075958605007        0.000021424115941        0.053803325788438
        0.133038637957775        0.000071006565417        0.000020022381511        0.049378256824757
        0.135457522284280        0.000065069939954        0.000018342681555        0.044438462565737
        0.137876406610785        0.000058799637655        0.000016571203554        0.039449721652931
        0.140295290937290        0.000051540132047        0.000014520726374        0.033980515584311
        0.142714175263795        0.000043937505986        0.000012376120811        0.028475983038367
        0.145133059590300        0.000035359763880        0.000009956709086        0.022533192798341
        0.147551943916805        0.000026435650547        0.000007442524724        0.016569764815292
        0.149970828243310        0.000016569995113        0.000004663156144        0.010217636513382
        0.152389712569815        0.000006361266288        0.000001790164936        0.003860461491698
        0.154808596896320       -0.000004735535249       -0.000001332858311       -0.002829219124968
        0.157227481222825       -0.000016165330625       -0.000004546502648       -0.009507635784746
        0.159646365549330       -0.000028409818611       -0.000007989500838       -0.016456542220581
        0.162065249875835       -0.000040970336022       -0.000011518242078       -0.023377350462509
        0.164484134202340       -0.000054252644878       -0.000015250245296       -0.030501718423340
        0.166903018528845       -0.000067827164396       -0.000019061245121       -0.037580836796042
        0.169321902855350       -0.000082011849799       -0.000023044222227       -0.044792653594406
        0.171740787181855       -0.000096458236905       -0.000027097622403       -0.051941965660902
        0.174159671508360       -0.000111385636265       -0.000031286850086       -0.059150227209608
        0.176578555834865       -0.000126537832232       -0.000035536174265       -0.066278842163663
        0.178997440161370       -0.000142025938138       -0.000039880741987       -0.073390857793713
        0.181416324487875       -0.000157695956264       -0.000044273432331       -0.080406415523443
        0.183835208814380       -0.000173542770449       -0.000048716876315       -0.087329140330623
        0.186254093140885       -0.000189523162689       -0.000053194957574       -0.094139140703127
        0.188672977467390       -0.000205509487190       -0.000057676014579       -0.100780514958328
        0.191091861793895       -0.000221576235485       -0.000062176875839       -0.107293651014231
        0.193510746120400       -0.000237468848436       -0.000066630345154       -0.113563926351372
        0.195929630446905       -0.000253384626417       -0.000071087627263       -0.119691401301610
        0.198348514773410       -0.000268939782574       -0.000075445327335       -0.125504433877656
        0.200767399099915       -0.000284457526719       -0.000079789901999       -0.131161242337439
        0.203186283426420       -0.000299424717483       -0.000083981706286       -0.136435733946191
        0.205605167752925       -0.000314291442139       -0.000088142731118       -0.141541888649413
        0.208024052079430       -0.000328417346563       -0.000092097666256       -0.146202557810150
        0.210442936405935       -0.000342378134610       -0.000096003698568       -0.150684244108068
        0.212861820732440       -0.000355410691508       -0.000099651086693       -0.154662910420751
        0.215280705058945       -0.000368212791543       -0.000103231237656       -0.158453552151038
        0.217699589385450       -0.000379905323114       -0.000106501863805       -0.161690118681567
        0.220118473711955       -0.000391302284734       -0.000109686973743       -0.164731340471288
        0.222537358038460       -0.000401417603843       -0.000112514258642       -0.167174660576445
        0.224956242364965       -0.000411173384504       -0.000115238073654       -0.169417133290434
        0.227375126691470       -0.000419487820525       -0.000117559231905       -0.171025750088030
        0.229794011017975       -0.000427380800283       -0.000119759561787       -0.172429907929574
        0.232212895344480       -0.000433688081888       -0.000121516725530       -0.173172656541914
        0.234631779670985       -0.000439514925677       -0.000123136563074       -0.173709276233840
        0.237050663997490       -0.000443629862844       -0.000124277851532       -0.173565740959796
        0.239469548323995       -0.000447209173606       -0.000125266433679       -0.173216375459510
        0.241888432650500       -0.000448971085080       -0.000125746949722       -0.172177196139975
        0.244307316977005       -0.000450146794715       -0.000126060741843       -0.170934457449565
        0.246726201303510       -0.000449422631095       -0.000125843477696       -0.169001481459841
        0.249145085630015       -0.000448067079748       -0.000125447063294       -0.166869169258554
        0.251563969956520       -0.000444754196106       -0.000124503698858       -0.164055447764421
        0.253982854283025       -0.000440770853707       -0.000123370558407       -0.161048522790224
        0.256401738609530       -0.000434799389182       -0.000121682137247       -0.157378152115576
        0.258820622936035       -0.000428125176379       -0.000119795301527       -0.153522555427412
        0.261239507262540       -0.000419460001658       -0.000117352771496       -0.149030366571663
        0.263658391589045       -0.000410067170552       -0.000114705336716       -0.144362688005117
        0.266077275915550       -0.000398709367668       -0.000111509944270       -0.139093789488024
        0.268496160242055       -0.000386606906167       -0.000108105438438       -0.133660790743319
        0.270915044568560       -0.000372594748822       -0.000104168968048       -0.127669972012337
        0.273333928895065       -0.000357829276314       -0.000100021560415       -0.121527971853519
        0.275752813221570       -0.000341238683282       -0.000095366412950       -0.114878976433361
        0.278171697548075       -0.000323894809842       -0.000090500960856       -0.108093107400065
        0.280590581874580       -0.000304839249082       -0.000085160067447       -0.100857786765802
        0.283009466201085       -0.000285039375895       -0.000079611997550       -0.093501134574332
        0.285428350527590       -0.000263669203102       -0.000073628568120       -0.085758495360297
        0.287847234854095       -0.000241572748304       -0.000067443591696       -0.077911133771706
        0.290266119180600       -0.000218073970787       -0.000060870700066       -0.069746292363682
        0.292685003507105       -0.000193876012713       -0.000054104364779       -0.061494227698763
        0.295103887833610       -0.000168468477916       -0.000047004374977       -0.052997287475240
        0.297522772160115       -0.000142397816675       -0.000039721458232       -0.044431328139584
        0.299941656486620       -0.000115332834140       -0.000032165299272       -0.035696195611960
        0.302360540813125       -0.000087649482572       -0.000024439050902       -0.026910762942163
        0.304779425139630       -0.000059206898670       -0.000016505349821       -0.018033919780888
        0.307198309466135       -0.000030199024723       -0.000008416594366       -0.009125817223659
        0.309617193792640       -0.000000683780685       -0.000000190679708       -0.000205065639016
        0.312036078119145        0.000029335865094        0.000008173209099        0.008727776279486
        0.314454962445650        0.000059597649721        0.000016600418959        0.017594577111390
        0.316873846772155        0.000090295776090        0.000025146656710        0.026454362381627
        0.319292731098660        0.000120961140959        0.000033679864085        0.035170551195095
        0.321711615425165        0.000151988370198        0.000042311490513        0.043860868912823
        0.324130499751670        0.000182702208091        0.000050852309702        0.052332211172885
        0.326549384078175        0.000213697874641        0.000059469501420        0.060759257873599
        0.328968268404680        0.000244097907389        0.000067917811328        0.068895131726032
        0.331387152731185        0.000274695123471        0.000076419252758        0.076968888791448
        0.333806037057690        0.000304417077098        0.000084674590279        0.084683412110438
        0.336224921384195        0.000334247979995        0.000092958881981        0.092318762382615
        0.338643805710700        0.000362930869915        0.000100921854808        0.099531845891218
        0.341062690037205        0.000391631959874        0.000108888937701        0.106649614660753
        0.343481574363710        0.000418923392873        0.000116462634827        0.113287927313418
        0.345900458690215        0.000446140867174        0.000124015208448        0.119815834084781
        0.348319343016720        0.000471702265266        0.000131106586532        0.125813668305994
        0.350738227343225        0.000497097253211        0.000138151499452        0.131687177160254
        0.353157111669730        0.000520608905423        0.000144672723522        0.136987203092388
        0.355575995996235        0.000543862510719        0.000151122314387        0.142150261045409
        0.357994880322740        0.000565028362353        0.000156992032008        0.146704160668020
        0.360413764649245        0.000585846423612        0.000162765400379        0.151109815134225
        0.362832648975750        0.000604398518375        0.000167909929347        0.154878788924555
        0.365251533302255        0.000622516004942        0.000172934116521        0.158489677208391
        0.367670417628760        0.000638218503246        0.000177288527488        0.161444817902408
        0.370089301955265        0.000653403471946        0.000181499588843        0.164233523526021
        0.372508186281770        0.000666056178280        0.000185008665813        0.166356053474595
        0.374927070608275        0.000678113226628        0.000188352617827        0.168305326077290
        0.377345954934780        0.000687554569710        0.000190971681356        0.169586696642190
        0.379764839261285        0.000696327732081        0.000193405308354        0.170689534124339
        0.382183723587790        0.000702437153122        0.000195100888333        0.171131387493005
        0.384602607914295        0.000707812197946        0.000196592396114        0.171390980994214
        0.387021492240800        0.000710511914221        0.000197342743288        0.171004976682067
        0.389440376567305        0.000712418011977        0.000197872249086        0.170434520853078
        0.391859260893810        0.000711674134690        0.000197667676916        0.169242030981423
        0.394278145220315        0.000710084877916        0.000197227527584        0.167864403806580
        0.396697029546820        0.000705907874638        0.000196070578553        0.165896082970432
        0.399115913873325        0.000700841642081        0.000194665491426        0.163743401101451
        0.401534798199830        0.000693286144567        0.000192570924568        0.161038638255835
        0.403953682526335        0.000684805811668        0.000190217948103        0.158151695410444
        0.406372566852840        0.000673969779531        0.000187212547145        0.154757956690831
        0.408791451179345        0.000662181786655        0.000183940841100        0.151185554137435
        0.411210335505850        0.000648205045982        0.000180063045352        0.147157626877935
        0.413629219832355        0.000633257844024        0.000175913482969        0.142955806358789
        0.416048104158860        0.000616320027741        0.000171212845696        0.138354955771529
        0.418466988485365        0.000598401928133        0.000166237443026        0.133586146403079
        0.420885872811870        0.000578719851724        0.000160773924694        0.128479197426558
        0.423304757138375        0.000558056314457        0.000155035104814        0.123211289149258
        0.425723641464880        0.000535880826738        0.000148878211119        0.117669646856111
        0.428142525791385        0.000512731226030        0.000142447913543        0.111975003880230
        0.430561410117890        0.000488343580250        0.000135675690539        0.106073626549774
        0.432980294444395        0.000462997493061        0.000128634338543        0.100028054951187
        0.435399178770900        0.000436705288717        0.000121332239486        0.093844394452521
        0.437818063097405        0.000409478356607        0.000113767580352        0.087526078605331
        0.440236947423910        0.000381611107285        0.000106027220969        0.081139003095212
        0.442655831750415        0.000352840527212        0.000098033056248        0.074627425976924
        0.445074716076920        0.000323744914473        0.000089950877018        0.068116140084510
        0.447493600403425        0.000293784619122        0.000081625701790        0.061491002644746
        0.449912484729930        0.000263819496999        0.000073301557462        0.054933980283730
        0.452331369056435        0.000233035090044        0.000064747129172        0.048274135018782
        0.454750253382940        0.000202566309022        0.000056282827109        0.041748079727733
        0.457169137709445        0.000171329825287        0.000047602685883        0.035130493341603
        0.459588022035950        0.000140724948590        0.000039100495803        0.028709340598625
        0.462006906362455        0.000109409513178        0.000030398459090        0.022208100149406
        0.464425790688960        0.000079032501546        0.000021959617446        0.015962075433395
        0.466844675015465        0.000048006965491        0.000013338272462        0.009647451658784
        0.469263559341970        0.000018212909213        0.000005061504964        0.003642197137059
        0.471682443668475       -0.000012163458278       -0.000003379277451       -0.002420222273846
