#  GS molecular orbital populations, spin channel : 1
#          time (fs)            |   population (orb 1)       |    population (orb 2)      |           ...              |    population (orb N)      |
          0.118525331998745            2.000039031117185            0.000000964007430  
          0.239469548323995            2.000039913643553            0.000000001478181  
          0.360413764649245            2.000038469547332            0.000000956087857  
          0.481357980974495            2.000038536654361            0.000000000193873  
          0.602302197299745            2.000036331419285            0.000000930555618  
          0.723246413624995            2.000035619278539           -0.000000000715348  
          0.844190629950245            2.000032636481023            0.000000990089745  
          0.965134846275495            2.000031300397255            0.000000009099872  
          1.086079062600745            2.000027642321773            0.000001050305753  
          1.207023278925995            2.000025757920348            0.000000046226796  
          1.327967495251245            2.000021727469323            0.000000945818164  
          1.448911711576495            2.000019227403929            0.000000104169854  
          1.569855927901745            2.000014994959946            0.000000816020113  
          1.690800144226995            2.000011962265719            0.000000182869990  
          1.811744360552245            2.000007536363554            0.000000831650672  
          1.932688576877495            2.000004164772441            0.000000349885500  
          2.053632793202745            1.999999807534226            0.000000812527581  
          2.174577009527995            1.999996161138025            0.000000558828904  
          2.295521225853245            1.999992270077760            0.000000579500295  
          2.416465442178495            1.999988437078181            0.000000607444976  
          2.537409658503745            1.999984968860263            0.000000370629513  
          2.658353874828995            1.999981153268053            0.000000615866727  
          2.779298091154245            1.999978063788050            0.000000303127251  
          2.900242307479495            1.999974330016816            0.000000835715916  
          3.021186523804745            1.999971951298800            0.000000245491389  
          3.142130740129995            1.999968418424279            0.000001072215463  
          3.263074956455245            1.999966942975541            0.000000132269368  
          3.384019172780495            1.999964051614854            0.000000925830255  
          3.504963389105745            1.999963154281000            0.000000066486211  
          3.625907605430995            1.999961103810365            0.000000722990163  
          3.746851821756245            1.999960741332413            0.000000072137995  
          3.867796038081495            1.999959332345730            0.000000863639086  
          3.988740254406745            1.999959898477118            0.000000086366368  
          4.109684470731995            1.999959052036429            0.000001135514827  
          4.230628687057245            1.999960707064605            0.000000099256831  
          4.351572903382495            1.999960849076561            0.000000991419435  
          4.472517119707745            1.999963188105017            0.000000095476435  
          4.593461336032996            1.999964465275234            0.000000659820958  
          4.714405552358246            1.999967169153200            0.000000179758848  
          4.835349768683495            1.999969317399468            0.000000617180055  
          4.956293985008745            1.999972507904335            0.000000348460151  
          5.077238201333995            1.999975309980383            0.000000774308581  
          5.198182417659245            1.999979004700160            0.000000578895508  
          5.319126633984495            1.999982663380272            0.000000653050845  
          5.440070850309746            1.999986658280837            0.000000582428462  
          5.561015066634996            1.999990989267855            0.000000323054484  
          5.681959282960245            1.999994940587683            0.000000543607783  
          5.802903499285495            1.999999568412021            0.000000140003666  
          5.923847715610745            2.000003144236536            0.000000791870568  
          6.044791931935995            2.000008064045735            0.000000054164542  
          6.165736148261245            2.000010975451709            0.000001230910259  
          6.286680364586495            2.000016121834345            0.000000031868877  
          6.407624580911745            2.000018802704658            0.000001112515350  
          6.528568797236995            2.000023444303294            0.000000005049272  
          6.649513013562244            2.000026068445027            0.000000648159161  
          6.770457229887494            2.000029590454831            0.000000091956624  
          6.891401446212745            2.000031702454255            0.000000613418239  
          7.012345662537995            2.000034408437580            0.000000182415758  
          7.133289878863245            2.000035445801998            0.000001040478093  
          7.254234095188495            2.000037644908943            0.000000340086808  
          7.375178311513745            2.000037930044841            0.000001145655875  
          7.496122527838994            2.000039515684790            0.000000236481385  
          7.617066744164244            2.000039353209670            0.000000658693156  
          7.738010960489495            2.000039650220420            0.000000207466461  
          7.858955176814745            2.000038850116921            0.000000445198243  
          7.979899393139995            2.000038042087424            0.000000293467305  
          8.100843609465246            2.000036120730760            0.000000872566062  
          8.221787825790495            2.000034878420371            0.000000406987159  
          8.342732042115745            2.000031820953747            0.000001412170987  
          8.463676258440994            2.000030654461756            0.000000205639884  
          8.584620474766245            2.000027264617422            0.000000927576746  
          8.705564691091494            2.000025184919946            0.000000073173524  
          8.826508907416745            2.000021627212933            0.000000459571443  
          8.947453123741996            2.000018615941841            0.000000094222116  
          9.068397340067245            2.000014264980230            0.000000896172054  
          9.189341556392495            2.000011419614130            0.000000053163216  
          9.310285772717744            2.000005921686032            0.000001757783356  
          9.431229989042995            2.000003673680018            0.000000142350075  
          9.552174205368244            1.999998717414522            0.000001200395055  
          9.673118421693495            1.999995896521773            0.000000124267818  
          9.794062638018746            1.999991713744281            0.000000445739984  
          9.915006854343995            1.999988218117917            0.000000151471881  
         10.035951070669245            1.999984014291817            0.000000672139754  
         10.156895286994494            1.999980891513913            0.000000252464373  
         10.277839503319745            1.999976487815113            0.000001288024896  
         10.398783719644994            1.999973782430494            0.000000831629206  
         10.519727935970245            1.999970745597288            0.000000944525794  
         10.640672152295496            1.999968395424591            0.000000639281718  
         10.761616368620745            1.999966358068190            0.000000316492159  
         10.882560584945995            1.999964313268817            0.000000322936627  
         11.003504801271244            1.999962543839509            0.000000399429828  
         11.124449017596495            1.999961195983226            0.000000420615395  
         11.245393233921744            1.999959947092727            0.000000726880831  
         11.366337450246995            1.999959020881583            0.000001107886761  
         11.487281666572246            1.999959179451737            0.000000811981878  
         11.608225882897495            1.999959358016103            0.000000911240622  
         11.729170099222745            1.999960627201973            0.000000335843265  
         11.850114315547994            1.999961700165004            0.000000371170299  
         11.971058531873245            1.999963231100184            0.000000355611316  
         12.092002748198494            1.999965258345693            0.000000239719508  
         12.212946964523745            1.999967022752348            0.000000766485939  
         12.333891180848996            1.999969925539734            0.000000511769575  
         12.454835397174245            1.999972038739000            0.000001377579631  
         12.575779613499495            1.999976231583818            0.000000464055341  
         12.696723829824744            1.999979360398315            0.000000879495756  
         12.817668046149995            1.999983861360821            0.000000149280707  
         12.938612262475244            1.999987596563829            0.000000367869475  
         13.059556478800495            1.999991943134719            0.000000113904053  
         13.180500695125746            1.999995560795584            0.000000681314528  
         13.301444911450995            2.000000434048006            0.000000036613305  
         13.422389127776245            2.000003068645535            0.000001625314661  
         13.543333344101494            2.000008631768184            0.000000230544726  
         13.664277560426745            2.000011594234727            0.000001334040603  
         13.785221776751994            2.000016735289719            0.000000110584459  
         13.906165993077245            2.000020130559494            0.000000438983841  
         14.027110209402496            2.000023774729717            0.000000283332377  
         14.148054425727745            2.000026999430689            0.000000273818916  
         14.268998642052996            2.000029613108267            0.000000568123672  
         14.389942858378244            2.000032000851022            0.000000751979111  
         14.510887074703495            2.000033715906124            0.000001244891602  
         14.631831291028744            2.000035814301210            0.000000971269669  
         14.752775507353995            2.000037459250896            0.000000752458688  
         14.873719723679246            2.000038829602835            0.000000399068529  
         14.994663940004495            2.000039546520759            0.000000283940271  
         15.115608156329746            2.000039791596820            0.000000223405027  
         15.236552372654995            2.000039199739546            0.000000586452354  
         15.357496588980245            2.000038839086523            0.000000313266711  
         15.478440805305494            2.000036587345011            0.000001535624848  
         15.599385021630745            2.000035639150372            0.000001074358716  
         15.720329237955996            2.000033768879882            0.000001172858381  
         15.841273454281245            2.000032186167309            0.000000644109983  
         15.962217670606496            2.000030163016738            0.000000240053663  
         16.083161886931745            2.000027385357112            0.000000299565138  
         16.204106103256994            2.000024268564455            0.000000436568298  
         16.325050319582246            2.000021127728048            0.000000367354962  
         16.445994535907495            2.000017238033301            0.000000847576106  
         16.566938752232744            2.000012612148930            0.000001897282635  
         16.687882968557997            2.000010015193584            0.000000783931096  
         16.808827184883246            2.000005453455752            0.000001537177516  
         16.929771401208495            2.000003079964366            0.000000039348268  
         17.050715617533744            1.999998940628305            0.000000278044362  
         17.171659833858996            1.999994943736014            0.000000380921294  
         17.292604050184245            1.999991110630408            0.000000363028417  
         17.413548266509494            1.999987636089562            0.000000064857640  
         17.534492482834747            1.999981878072904            0.000002163221902  
         17.655436699159996            1.999980073651495            0.000000453400208  
         17.776380915485245            1.999975032292733            0.000002160902702  
         17.897325131810494            1.999973916912875            0.000000155966521  
         18.018269348135746            1.999970838739956            0.000000356446561  
         18.139213564460995            1.999968220053464            0.000000369945325  
         18.260157780786244            1.999965977341999            0.000000307984270  
         18.381101997111497            1.999964267997584            0.000000039465002  
         18.502046213436746            1.999961196488893            0.000001483700698  
         18.622990429761995            1.999960791054402            0.000000629483293  
         18.743934646087244            1.999958376441930            0.000002170939810  
         18.864878862412496            1.999959543229898            0.000000532097611  
         18.985823078737745            1.999959423020969            0.000000589531948  
         19.106767295062994            1.999960043460865            0.000000321385144  
         19.227711511388247            1.999960908452789            0.000000223691365  
         19.348655727713496            1.999962169816811            0.000000143617778  
         19.469599944038745            1.999962938862990            0.000000963481484  
         19.590544160363994            1.999965673340824            0.000000209738025  
         19.711488376689246            1.999965863788841            0.000002375413884  
         19.832432593014495            1.999970635692995            0.000000312442527  
         19.953376809339744            1.999972734256707            0.000001249429437  
         20.074321025664997            1.999977228735702            0.000000085248491  
         20.195265241990246            1.999980728889034            0.000000172081162  
         20.316209458315495            1.999984345129227            0.000000361274123  
         20.437153674640744            1.999988298813385            0.000000389931673  
         20.558097890965996            1.999992485244115            0.000000316863134  
         20.679042107291245            1.999995256364831            0.000001742473386  
         20.799986323616494            2.000000302519367            0.000000926453230  
         20.920930539941747            2.000004027779978            0.000001417662013  
         21.041874756266996            2.000009281963603            0.000000317859505  
         21.162818972592245            2.000013251859805            0.000000391209072  
         21.283763188917494            2.000017231547672            0.000000296696250  
         21.404707405242746            2.000021019693302            0.000000191975987  
         21.525651621567995            2.000023879696830            0.000000774381681  
         21.646595837893244            2.000027488238400            0.000000329849150  
         21.767540054218497            2.000028310674659            0.000002357188366  
         21.888484270543746            2.000032517829937            0.000000657129652  
         22.009428486868995            2.000033909158737            0.000001406219714  
         22.130372703194244            2.000036891344342            0.000000179892895  
         22.251316919519496            2.000038307097965            0.000000118202667  
         22.372261135844745            2.000038881795027            0.000000485184005  
         22.493205352169994            2.000039510029295            0.000000383024494  
         22.614149568495247            2.000039990653319            0.000000013731795  
         22.735093784820496            2.000037250164996            0.000002453890644  
         22.856038001145745            2.000038309319050            0.000000688713230  
         22.976982217470994            2.000035455210885            0.000002442880636  
         23.097926433796246            2.000036253543712            0.000000169772849  
         23.218870650121495            2.000034369147818            0.000000221588869  
         23.339814866446744            2.000031778975070            0.000000641807218  
         23.460759082771997            2.000029714779759            0.000000223061438  
         23.581703299097246            2.000027138880966            0.000000032058948  
         23.702647515422495            2.000022307955641            0.000001841742848  
         23.823591731747744            2.000019775921889            0.000001126425535  
         23.944535948072996            2.000014644196186            0.000002815020837  
         24.065480164398245            2.000012756822034            0.000001099607911  
         24.186424380723494            2.000009814463644            0.000000313411179  
         24.307368597048747            2.000005764785355            0.000000541448592  
         24.428312813373996            2.000001886259208            0.000000539207619  
         24.549257029699245            1.999998410658319            0.000000112041386  
         24.670201246024494            1.999993852413765            0.000000783058695  
         24.791145462349750            1.999988936623455            0.000001860765232  
         24.912089678674999            1.999985372047531            0.000001668982484  
         25.033033895000248            1.999980532786284            0.000002871045741  
         25.153978111325497            1.999979768890674            0.000000152042834  
         25.274922327650749            1.999976151496677            0.000000472666424  
         25.395866543975998            1.999972842697967            0.000000700830991  
         25.516810760301247            1.999970694866375            0.000000015827641  
         25.637754976626500            1.999967844201798            0.000000313739222  
         25.758699192951749            1.999964361080200            0.000001551166908  
         25.879643409276998            1.999963276783603            0.000000717638229  
         26.000587625602247            1.999958861118486            0.000003568109579  
         26.121531841927499            1.999960900681411            0.000000337227143  
         26.242476058252748            1.999959540234452            0.000000896862741  
         26.363420274577997            1.999959614215137            0.000000423088417  
         26.484364490903250            1.999960038442409            0.000000007273601  
         26.605308707228499            1.999959950916608            0.000000519950565  
         26.726252923553748            1.999960590867237            0.000000723972517  
         26.847197139878997            1.999962204715609            0.000000365368250  
         26.968141356204249            1.999961031773853            0.000003196215468  
         27.089085572529498            1.999965604781178            0.000000670613916  
