#           time (fs)       | force (atom_1) (H/b)   |  force (atom_2) (H/b)  |           ...          |  force (atom_N) (H/b)  |
        0.000000000000000       -0.000000000000000       -0.000000000000000       -0.001977038000788       -0.000000000000000       -0.000000000000000        0.001977038000788
        0.120944216325250        0.000002050490679       -0.000002862953496       -0.001609495011633       -0.000002050490679        0.000002862953519        0.001609495011633
        0.241888432650500        0.000003114064784       -0.000005478601296       -0.001223013802676       -0.000003114064784        0.000005478601379        0.001223013802676
        0.362832648975750        0.000003145799049       -0.000011140811012       -0.000824238352502       -0.000003145799049        0.000011140811172        0.000824238352502
        0.483776865301000        0.000002110317203       -0.000011670491138       -0.000414998113661       -0.000002110317203        0.000011670491359        0.000414998113661
        0.604721081626250        0.000000012279476       -0.000014932830545       -0.000001932166524       -0.000000012279476        0.000014932830798        0.000001932166524
        0.725665297951500       -0.000003144816468       -0.000005979852840        0.000412902172953        0.000003144816468        0.000005979853072       -0.000412902172953
        0.846609514276750       -0.000007307633070        0.000000749803009        0.000823009566729        0.000007307633070       -0.000000749802836       -0.000823009566729
        0.967553730602000       -0.000012434711837        0.000014138622230        0.001226293807917        0.000012434711837       -0.000014138622153       -0.001226293807917
        1.088497946927250       -0.000018429669222        0.000022466159874        0.001616754195719        0.000018429669222       -0.000022466159898       -0.001616754195719
        1.209442163252500       -0.000025215487214        0.000024588653429        0.001992289030899        0.000025215487214       -0.000024588653537       -0.001992289030899
        1.330386379577750       -0.000032660438855        0.000025832336071        0.002347602129088        0.000032660438855       -0.000025832336234       -0.002347602129088
        1.451330595903000       -0.000040658503775        0.000019667870136        0.002680822491174        0.000040658503775       -0.000019667870311       -0.002680822491174
        1.572274812228250       -0.000049048710088        0.000026158511627        0.002987280030793        0.000049048710088       -0.000026158511785       -0.002987280030793
        1.693219028553500       -0.000057707931684        0.000033629812564        0.003265746835116        0.000057707931684       -0.000033629812678       -0.003265746835116
        1.814163244878750       -0.000066447751734        0.000056855721159        0.003511846961377        0.000066447751734       -0.000056855721225       -0.003511846961377
        1.935107461204000       -0.000075142839950        0.000079170890850        0.003725396872589        0.000075142839950       -0.000079170890874       -0.003725396872589
        2.056051677529250       -0.000083578474466        0.000100415803431        0.003902064451083        0.000083578474466       -0.000100415803433       -0.003902064451083
        2.176995893854500       -0.000091640274157        0.000110129065599        0.004042884132514        0.000091640274157       -0.000110129065602       -0.004042884132514
        2.297940110179750       -0.000099096361894        0.000106821607069        0.004143749616814        0.000099096361894       -0.000106821607087       -0.004143749616814
        2.418884326505000       -0.000105848983523        0.000095263257938        0.004206691120733        0.000105848983523       -0.000095263257973       -0.004206691120733
        2.539828542830250       -0.000111669247602        0.000084370354869        0.004228384719378        0.000111669247602       -0.000084370354911       -0.004228384719378
        2.660772759155500       -0.000116471202199        0.000080833363343        0.004211272912025        0.000116471202199       -0.000080833363374       -0.004211272912025
        2.781716975480750       -0.000120051566213        0.000094249828075        0.004153318868407        0.000120051566213       -0.000094249828087       -0.004153318868407
        2.902661191806000       -0.000122328485305        0.000113733908249        0.004056854119681        0.000122328485305       -0.000113733908237       -0.004056854119681
        3.023605408131250       -0.000123138116190        0.000138213379646        0.003921235550200        0.000123138116190       -0.000138213379625       -0.003921235550200
        3.144549624456500       -0.000122409990479        0.000148475665492        0.003748787002109        0.000122409990479       -0.000148475665484       -0.003748787002109
        3.265493840781750       -0.000120019876780        0.000140193953071        0.003539914603192        0.000120019876780       -0.000140193953108       -0.003539914603192
        3.386438057107000       -0.000115939633817        0.000116241530387        0.003297711921742        0.000115939633817       -0.000116241530496       -0.003297711921742
        3.507382273432250       -0.000110071614127        0.000076075971794        0.003022950693042        0.000110071614127       -0.000076075971997       -0.003022950693042
        3.628326489757500       -0.000102467125764        0.000050134534833        0.002720267721499        0.000102467125764       -0.000050134535110       -0.002720267721499
        3.749270706082750       -0.000093035533478        0.000027296143215        0.002390067749304        0.000093035533478       -0.000027296143550       -0.002390067749304
        3.870214922408000       -0.000081923509567        0.000035906046236        0.002038622896197        0.000081923509567       -0.000035906046559       -0.002038622896197
        3.991159138733250       -0.000069040729953        0.000043775487272        0.001665736131351        0.000069040729953       -0.000043775487539       -0.001665736131351
        4.112103355058500       -0.000054617891932        0.000056916380517        0.001278760216304        0.000054617891932       -0.000056916380664       -0.001278760216304
        4.233047571383750       -0.000038590924101        0.000047134085990        0.000877508408708        0.000038590924101       -0.000047134085985       -0.000877508408708
        4.353991787709000       -0.000021250831578        0.000012123550921        0.000469669611970        0.000021250831578       -0.000012123550754       -0.000469669611970
        4.474936004034250       -0.000002606589936       -0.000039272881295        0.000056035865834        0.000002606589936        0.000039272881604       -0.000056035865834
        4.595880220359500        0.000017017392840       -0.000103956578071       -0.000356081771990       -0.000017017392840        0.000103956578468        0.000356081771990
        4.716824436684750        0.000037514661889       -0.000147592749888       -0.000764572488197       -0.000037514661889        0.000147592750304        0.000764572488197
        4.837768653010000        0.000058556009246       -0.000175870681901       -0.001163116141209       -0.000058556009246        0.000175870682269        0.001163116141209
        4.958712869335250        0.000079966721873       -0.000172644155484       -0.001549014469792       -0.000079966721873        0.000172644155758        0.001549014469792
        5.079657085660500        0.000101418103666       -0.000162470930555       -0.001916924891584       -0.000101418103666        0.000162470930717        0.001916924891584
        5.200601301985750        0.000122688001979       -0.000157439797857       -0.002263983131375       -0.000122688001979        0.000157439797915        0.002263983131375
        5.321545518311000        0.000143457330609       -0.000176774721465       -0.002585850466097       -0.000143457330609        0.000176774721446        0.002585850466097
        5.442489734636251        0.000163457002398       -0.000223786348063       -0.002879470724304       -0.000163457002398        0.000223786348007        0.002879470724304
        5.563433950961501        0.000182353428303       -0.000291214980405       -0.003140956755367       -0.000182353428303        0.000291214980351        0.003140956755367
        5.684378167286750        0.000199849467069       -0.000351134809014       -0.003367382566183       -0.000199849467069        0.000351134808991        0.003367382566183
        5.805322383612000        0.000215614933864       -0.000397023857547       -0.003555535234131       -0.000215614933864        0.000397023857564        0.003555535234131
        5.926266599937250        0.000229376901424       -0.000395707384385       -0.003703402900957       -0.000229376901424        0.000395707384429        0.003703402900957
        6.047210816262500        0.000240832685693       -0.000379422767279       -0.003808675181424       -0.000240832685693        0.000379422767328        0.003808675181424
        6.168155032587750        0.000249820213175       -0.000337627512255       -0.003871412505273       -0.000249820213175        0.000337627512289        0.003871412505273
        6.289099248913001        0.000256023143182       -0.000318599745011       -0.003889331948326       -0.000256023143182        0.000318599745022        0.003889331948326
        6.410043465238251        0.000259465073543       -0.000325135235032       -0.003865394793031       -0.000259465073543        0.000325135235021        0.003865394793031
        6.530987681563500        0.000259717405849       -0.000355221082305       -0.003795730951435       -0.000259717405849        0.000355221082289        0.003795730951435
        6.651931897888750        0.000257033691618       -0.000416294748833       -0.003686543061838       -0.000257033691618        0.000416294748842        0.003686543061838
        6.772876114214000        0.000250844655447       -0.000438138854654       -0.003531993752071       -0.000250844655447        0.000438138854721        0.003531993752071
        6.893820330539250        0.000241637117004       -0.000461045529674       -0.003341266297047       -0.000241637117004        0.000461045529829        0.003341266297047
        7.014764546864500        0.000228839194398       -0.000402555718316       -0.003108512187135       -0.000228839194398        0.000402555718529        0.003108512187135
        7.135708763189751        0.000213070046441       -0.000350330590613       -0.002844183187685       -0.000213070046441        0.000350330590853        0.002844183187685
        7.256652979515001        0.000193988826070       -0.000261797717432       -0.002545418599682       -0.000193988826070        0.000261797717593        0.002545418599682
        7.377597195840250        0.000172101759864       -0.000213178403335       -0.002220473731625       -0.000172101759864        0.000213178403367        0.002220473731625
        7.498541412165500        0.000147477472753       -0.000198933778785       -0.001871503262467       -0.000147477472753        0.000198933778645        0.001871503262467
        7.619485628490750        0.000120254046069       -0.000203681334160       -0.001501385609381       -0.000120254046069        0.000203681333814        0.001501385609381
        7.740429844816000        0.000090944967928       -0.000248798308728       -0.001117424884175       -0.000090944967928        0.000248798308223        0.001117424884175
        7.861374061141250        0.000059317000128       -0.000231677541566       -0.000717433751871       -0.000059317000128        0.000231677540874        0.000717433751871
        7.982318277466501        0.000026255344799       -0.000222401650480       -0.000312676514118       -0.000026255344799        0.000222401649731        0.000312676514118
        8.103262493791750       -0.000008582974606       -0.000117096297814        0.000100671370553        0.000008582974606        0.000117096297080       -0.000100671370553
        8.224206710117000       -0.000044201491633       -0.000030658329800        0.000510730861995        0.000044201491633        0.000030658329250       -0.000510730861995
        8.345150926442249       -0.000080643254534        0.000083431099942        0.000918154641732        0.000080643254534       -0.000083431100224       -0.000918154641732
        8.466095142767500       -0.000117251007552        0.000144871776474        0.001315698594176        0.000117251007552       -0.000144871776452       -0.001315698594176
        8.587039359092751       -0.000153529852798        0.000156572722021        0.001698324805027        0.000153529852798       -0.000156572721728       -0.001698324805027
        8.707983575418000       -0.000189498316473        0.000151397769585        0.002066875081020        0.000189498316473       -0.000151397769090       -0.002066875081020
        8.828927791743251       -0.000224106251065        0.000103117988324        0.002410646581267        0.000224106251065       -0.000103117987670       -0.002410646581267
        8.949872008068500       -0.000257966990106        0.000128888647113        0.002737165791250        0.000257966990106       -0.000128888646403       -0.002737165791250
        9.070816224393750       -0.000289658475134        0.000149689832765        0.003032245150417        0.000289658475134       -0.000149689832041       -0.003032245150417
        9.191760440718999       -0.000319905462573        0.000264822227279        0.003304620647155        0.000319905462573       -0.000264822226701       -0.003304620647155
        9.312704657044250       -0.000347329395864        0.000354203720457        0.003541125390175        0.000347329395864       -0.000354203720061       -0.003541125390175
        9.433648873369501       -0.000372258035177        0.000451593833691        0.003746440001664        0.000372258035177       -0.000451593833543       -0.003746440001664
        9.554593089694750       -0.000393911291316        0.000486126405734        0.003913996880710        0.000393911291316       -0.000486126405806       -0.003913996880710
        9.675537306020001       -0.000412003979171        0.000457027291174        0.004042411844125        0.000412003979171       -0.000457027291429       -0.004042411844125
        9.796481522345250       -0.000426668699725        0.000412754297577        0.004134416482245        0.000426668699725       -0.000412754297989       -0.004134416482245
        9.917425738670500       -0.000437085025551        0.000331931475417        0.004183486385134        0.000437085025551       -0.000331931475949       -0.004183486385134
       10.038369954995749       -0.000444029796257        0.000330914082832        0.004198516201613        0.000444029796257       -0.000330914083430       -0.004198516201613
       10.159314171321000       -0.000446431015480        0.000335631922401        0.004170703785743        0.000446431015480       -0.000335631922997       -0.004170703785743
       10.280258387646251       -0.000445034323419        0.000423901815118        0.004108445358628        0.000445034323419       -0.000423901815621       -0.004108445358628
       10.401202603971500       -0.000439018386890        0.000483845851262        0.004005450394381        0.000439018386890       -0.000483845851602       -0.004005450394381
       10.522146820296751       -0.000428566947198        0.000529154723279        0.003864786797744        0.000428566947198       -0.000529154723389       -0.003864786797744
       10.643091036622000       -0.000413691287629        0.000505577002225        0.003687848731758        0.000413691287629       -0.000505577002047       -0.003687848731758
       10.764035252947250       -0.000393920082711        0.000411152162981        0.003471718470849        0.000393920082711       -0.000411152162480       -0.003471718470849
       10.884979469272501       -0.000370310525244        0.000307009352954        0.003226934415749        0.000370310525244       -0.000307009352144       -0.003226934415749
       11.005923685597750       -0.000341917598680        0.000181374952376        0.002946318273496        0.000341917598680       -0.000181374951358       -0.002946318273496
       11.126867901923001       -0.000310393262390        0.000142010386455        0.002645145028956        0.000310393262390       -0.000142010385339       -0.002645145028956
       11.247812118248250       -0.000274620506304        0.000121582952107        0.002314688821497        0.000274620506304       -0.000121582951089       -0.002314688821497
       11.368756334573501       -0.000236075370786        0.000174522755702        0.001968225721620        0.000236075370786       -0.000174522754862       -0.001968225721620
       11.489700550898750       -0.000193978734178        0.000196077884602        0.001599866776631        0.000193978734178       -0.000196077884109       -0.001599866776631
       11.610644767224001       -0.000149164516554        0.000186075315622        0.001217139901410        0.000149164516554       -0.000186075315552       -0.001217139901410
       11.731588983549251       -0.000101804639658        0.000105353572673        0.000821914508445        0.000101804639658       -0.000105353573106       -0.000821914508445
       11.852533199874500       -0.000052077286368       -0.000045658666099        0.000416034815303        0.000052077286368        0.000045658665149       -0.000416034815303
       11.973477416199751       -0.000001295506981       -0.000190970010781        0.000010242834302        0.000001295506981        0.000190970009484       -0.000010242834302
       12.094421632525000        0.000050885700132       -0.000342191754264       -0.000398133549345       -0.000050885700132        0.000342191752778        0.000398133549345
       12.215365848850251        0.000102576365354       -0.000389272812835       -0.000794349259926       -0.000102576365354        0.000389272811422        0.000794349259926
       12.336310065175500        0.000154414570324       -0.000412074497175       -0.001183636526756       -0.000154414570324        0.000412074495977        0.001183636526756
       12.457254281500751        0.000204854139208       -0.000361326070882       -0.001554444558109       -0.000204854139208        0.000361326070030        0.001554444558109
       12.578198497826001        0.000254180946558       -0.000350379306132       -0.001909449087791       -0.000254180946558        0.000350379305707        0.001909449087791
       12.699142714151250        0.000301724901747       -0.000379805566160       -0.002244113018750       -0.000301724901747        0.000379805566220        0.002244113018750
       12.820086930476501        0.000346621827522       -0.000475507333204       -0.002552651913485       -0.000346621827522        0.000475507333750        0.002552651913485
       12.941031146801750        0.000389199583226       -0.000639230598637       -0.002838204104018       -0.000389199583226        0.000639230599580        0.002838204104018
       13.061975363127001        0.000427150141548       -0.000767676590997       -0.003084755110684       -0.000427150141548        0.000767676592194        0.003084755110684
       13.182919579452250        0.000461804135531       -0.000893841517850       -0.003302935224405       -0.000461804135531        0.000893841519105        0.003302935224405
       13.303863795777501        0.000490192481396       -0.000886439550149       -0.003472515176621       -0.000490192481396        0.000886439551346        0.003472515176621
       13.424808012102751        0.000514295424502       -0.000860240286148       -0.003608764814446       -0.000514295424502        0.000860240287128        0.003608764814446
