#           time (fs)    |     mu_x (e.angstrom)   |     mu_y (e.angstrom)   |     mu_z (e.angstrom)   |
        0.000000000000000       -0.000000000000000       -0.000000000000000        0.000000000000000
        0.002418884326505        0.000000000795021       -0.000000000967002       -0.000031180692267
        0.004837768653010        0.000000003180133       -0.000000003868119       -0.000062364375829
        0.007256652979515        0.000000007116908       -0.000000008656533       -0.000093045278145
        0.009675537306020        0.000000012618216       -0.000000015348024       -0.000123728778895
        0.012094421632525        0.000000019556771       -0.000000023787594       -0.000153413651778
        0.014513305959030        0.000000028008904       -0.000000034068312       -0.000183100343010
        0.016932190285535        0.000000037710804       -0.000000045869020       -0.000211308325380
        0.019351074612040        0.000000048850660       -0.000000059418942       -0.000239516970027
        0.021769958938545        0.000000060984720       -0.000000074177955       -0.000265790339864
        0.024188843265050        0.000000074457580       -0.000000090565622       -0.000292062856422
        0.026607727591555        0.000000088607852       -0.000000107777002       -0.000315974415037
        0.029026611918060        0.000000103975744       -0.000000126469690       -0.000339883266868
        0.031445496244565        0.000000119651588       -0.000000145536652       -0.000361043227743
        0.033864380571070        0.000000136403718       -0.000000165913060       -0.000382198316658
        0.036283264897575        0.000000153051757       -0.000000186162507       -0.000400260587881
        0.038702149224080        0.000000170616790       -0.000000207527695       -0.000418315540953
        0.041121033550585        0.000000187634469       -0.000000228226713       -0.000432983300123
        0.043539917877090        0.000000205394381       -0.000000249828952       -0.000447641048558
        0.045958802203595        0.000000222144852       -0.000000270202917       -0.000458671520520
        0.048377686530100        0.000000239450063       -0.000000291252094       -0.000469689080894
        0.050796570856605        0.000000255278056       -0.000000310503972       -0.000476897441587
        0.053215455183110        0.000000271463510       -0.000000330191154       -0.000484089822676
        0.055634339509615        0.000000285711844       -0.000000347521591       -0.000487352166521
        0.058053223836120        0.000000300113686       -0.000000365039305       -0.000490595339131
        0.060472108162625        0.000000312140067       -0.000000379667055       -0.000489850662540
        0.062890992489130        0.000000324112543       -0.000000394229847       -0.000489083544865
        0.065309876815635        0.000000333306259       -0.000000405412079       -0.000484334714362
        0.067728761142140        0.000000342238475       -0.000000416276900       -0.000479560141348
        0.070147645468645        0.000000348036625       -0.000000423328942       -0.000470873831173
        0.072566529795150        0.000000353368783       -0.000000429814892       -0.000462158492752
        0.074985414121655        0.000000355271675       -0.000000432128957       -0.000449664093496
        0.077404298448160        0.000000356510417       -0.000000433635956       -0.000437137443203
        0.079823182774665        0.000000354095773       -0.000000430698422       -0.000421024959568
        0.082242067101170        0.000000350828297       -0.000000426724373       -0.000404877111666
        0.084660951427675        0.000000343763949       -0.000000418131220       -0.000385394083799
        0.087079835754180        0.000000335670547       -0.000000408287262       -0.000365872733331
        0.089498720080685        0.000000323725309       -0.000000393757303       -0.000343320231843
        0.091917604407190        0.000000310590047       -0.000000377780802       -0.000320726647786
        0.094336488733695        0.000000293642510       -0.000000357166375       -0.000295454407537
        0.096755373060200        0.000000275361779       -0.000000334931318       -0.000270138564112
        0.099174257386705        0.000000253406795       -0.000000308226174       -0.000242539335656
        0.101593141713210        0.000000229995511       -0.000000279750718       -0.000214894260757
        0.104012026039715        0.000000203148193       -0.000000247094884       -0.000185397470914
        0.106430910366220        0.000000174743482       -0.000000212545829       -0.000155852903140
        0.108849794692725        0.000000143240591       -0.000000174227297       -0.000124917727261
        0.111268679019230        0.000000110102818       -0.000000133921342       -0.000093933184168
        0.113687563345735        0.000000074301462       -0.000000090374479       -0.000062041142053
        0.116106447672240        0.000000036812556       -0.000000044776184       -0.000030098511641
        0.118525331998745       -0.000000002813825        0.000000003423146        0.000002254293287
        0.120944216325250       -0.000000044154781        0.000000053706728        0.000034658518197
        0.123363100651755       -0.000000087023100        0.000000105849298        0.000066969391208
        0.125781984978260       -0.000000131606963        0.000000160077250        0.000099332110395
        0.128200869304765       -0.000000177033751        0.000000215331740        0.000131099860337
        0.130619753631270       -0.000000224151002        0.000000272641060        0.000162919466401
        0.133038637957775       -0.000000271364110        0.000000330068291        0.000193652472661
        0.135457522284280       -0.000000320216973        0.000000389488627        0.000224436923494
        0.137876406610785       -0.000000368369509        0.000000448058510        0.000253661045077
        0.140295290937290       -0.000000418086293        0.000000508529614        0.000282935778544
        0.142714175263795       -0.000000466272544        0.000000567140520        0.000310201977925
        0.145133059590300       -0.000000515923965        0.000000627532094        0.000337517541348
        0.147551943916805       -0.000000563197017        0.000000685032280        0.000362409100439
        0.149970828243310       -0.000000611814196        0.000000744165864        0.000387348372139
        0.152389712569815       -0.000000657204910        0.000000799376559        0.000409487584350
        0.154808596896320       -0.000000703798699        0.000000856049046        0.000431672471160
        0.157227481222825       -0.000000746335694        0.000000907788748        0.000450726702046
        0.159646365549330       -0.000000789916979        0.000000960797067        0.000469824205216
        0.162065249875835       -0.000000828647210        0.000001007906577        0.000485511224436
        0.164484134202340       -0.000000868247774        0.000001056073074        0.000501238776579
        0.166903018528845       -0.000000902257314        0.000001097440771        0.000513331275698
        0.169321902855350       -0.000000936950862        0.000001139638778        0.000525461263240
        0.171740787181855       -0.000000965385454        0.000001174225613        0.000533790487050
        0.174159671508360       -0.000000994308361        0.000001209404687        0.000542153885803
        0.176578555834865       -0.000001016393321        0.000001236268393        0.000546612319177
        0.178997440161370       -0.000001038764692        0.000001263478708        0.000551101384982
        0.181416324487875       -0.000001053823745        0.000001281796710        0.000551644452501
        0.183835208814380       -0.000001068964343        0.000001300212085        0.000552214424128
        0.186254093140885       -0.000001076436987        0.000001309302617        0.000548861175647
        0.188672977467390       -0.000001083786651        0.000001318241697        0.000545530963079
        0.191091861793895       -0.000001083243663        0.000001317582667        0.000538363734735
        0.193510746120400       -0.000001082376808        0.000001316527782        0.000531215582288
        0.195929630446905       -0.000001073533549        0.000001305772949        0.000520378638956
        0.198348514773410       -0.000001064172410        0.000001294386218        0.000509556769208
        0.200767399099915       -0.000001046899599        0.000001273378304        0.000495253950784
        0.203186283426420       -0.000001028924903        0.000001251514619        0.000480962211671
        0.205605167752925       -0.000001003256599        0.000001220295019        0.000463453621590
        0.208024052079430       -0.000000976715387        0.000001188011561        0.000445952175065
        0.210442936405935       -0.000000942853963        0.000001146826389        0.000425549964843
        0.212861820732440       -0.000000907964351        0.000001104388423        0.000405151070866
        0.215280705058945       -0.000000866282271        0.000001053690681        0.000382214388961
        0.217699589385450       -0.000000823434985        0.000001001573420        0.000359277353123
        0.220118473711955       -0.000000774473301        0.000000942021171        0.000334206539817
        0.222537358038460       -0.000000724229878        0.000000880907595        0.000309131906311
        0.224956242364965       -0.000000668693383        0.000000813358068        0.000282362028381
        0.227375126691470       -0.000000611781002        0.000000744132637        0.000255585112110
        0.229794011017975       -0.000000550530066        0.000000669632301        0.000227578941620
        0.232212895344480       -0.000000487833027        0.000000593370592        0.000199562803796
        0.234631779670985       -0.000000421872196        0.000000513141292        0.000170803354224
        0.237050663997490       -0.000000354420135        0.000000431095669        0.000142031334707
        0.239469548323995       -0.000000284883639        0.000000346516995        0.000113014074647
        0.241888432650500       -0.000000213836637        0.000000260098497        0.000083982001317
        0.244307316977005       -0.000000141971011        0.000000172686651        0.000055206871116
        0.246726201303510       -0.000000068601806        0.000000083443354        0.000026415071690
        0.249145085630015        0.000000004254102       -0.000000005173166       -0.000001621568526
        0.251563969956520        0.000000078580529       -0.000000095580973       -0.000029676323730
        0.253982854283025        0.000000151017847       -0.000000183688488       -0.000056489685190
        0.256401738609530        0.000000224866972       -0.000000273515921       -0.000083322179996
        0.258820622936035        0.000000295431011       -0.000000359345012       -0.000108446847150
        0.261239507262540        0.000000367323389       -0.000000446792537       -0.000133591227312
        0.263658391589045        0.000000434539362       -0.000000528549329       -0.000156588645171
        0.266077275915550        0.000000502976739       -0.000000611794525       -0.000179605911833
        0.268496160242055        0.000000565376529       -0.000000687693252       -0.000200071438615
        0.270915044568560        0.000000628868986       -0.000000764923830       -0.000220556507217
        0.273333928895065        0.000000685018495       -0.000000833220097       -0.000238125919229
        0.275752813221570        0.000000742112143       -0.000000902667589       -0.000255714130696
        0.278171697548075        0.000000790638710       -0.000000961691729       -0.000270069475228
        0.280590581874580        0.000000839943426       -0.000001021665228       -0.000284442455129
        0.283009466201085        0.000000879562810       -0.000001069855119       -0.000295317157701
        0.285428350527590        0.000000919779500       -0.000001118774440       -0.000306207929636
        0.287847234854095        0.000000949321907       -0.000001154707173       -0.000313391073952
        0.290266119180600        0.000000979268778       -0.000001191134811       -0.000320588345440
        0.292685003507105        0.000000997703443       -0.000001213556588       -0.000323928057765
        0.295103887833610        0.000001016340770       -0.000001236227848       -0.000327279610246
        0.297522772160115        0.000001022798588       -0.000001244081509       -0.000326685494344
        0.299941656486620        0.000001029251495       -0.000001251932214       -0.000326100623366
        0.302360540813125        0.000001023045248       -0.000001244381847       -0.000321545207397
        0.304779425139630        0.000001016624032       -0.000001236573065       -0.000316996174310
        0.307198309466135        0.000000997265795       -0.000001213025171       -0.000308515347009
        0.309617193792640        0.000000977483373       -0.000001188964431       -0.000300037819401
        0.312036078119145        0.000000944698702       -0.000001149085188       -0.000287730249072
        0.314454962445650        0.000000911284790       -0.000001108443730       -0.000275422723435
        0.316873846772155        0.000000865023377       -0.000001052171950       -0.000259448269645
        0.319292731098660        0.000000817935085       -0.000000994897612       -0.000243470486075
        0.321711615425165        0.000000758377600       -0.000000922453064       -0.000224047630091
        0.324130499751670        0.000000697806162       -0.000000848778465       -0.000204618005024
        0.326549384078175        0.000000625367089       -0.000000760665319       -0.000182020340754
        0.328968268404680        0.000000551740533       -0.000000671111105       -0.000159412459467
        0.331387152731185        0.000000467066847       -0.000000568116326       -0.000133964301746
        0.333806037057690        0.000000381048468       -0.000000463489309       -0.000108502527409
        0.336224921384195        0.000000285014106       -0.000000346675927       -0.000080573708555
        0.338643805710700        0.000000187496677       -0.000000228062049       -0.000052627978769
        0.341062690037205        0.000000081192812       -0.000000098757322       -0.000022627917359
        0.343481574363710       -0.000000026711434        0.000000032490543        0.000007392187917
        0.345900458690215       -0.000000141990242        0.000000172711965        0.000039021050526
        0.348319343016720       -0.000000258963783        0.000000314991242        0.000070672874096
        0.350738227343225       -0.000000381737363        0.000000464328951        0.000103462163863
        0.353157111669730       -0.000000506275533        0.000000615809441        0.000136277063838
        0.355575995996235       -0.000000634899600        0.000000772263416        0.000169739976746
        0.357994880322740       -0.000000765332460        0.000000930913897        0.000203230832486
        0.360413764649245       -0.000000898023498        0.000001092314770        0.000236869929332
        0.362832648975750       -0.000001032541124        0.000001255933757        0.000270538940185
        0.365251533302255       -0.000001167404287        0.000001419976754        0.000303854108289
        0.367670417628760       -0.000001304085086        0.000001586226941        0.000337200759957
        0.370089301955265       -0.000001439144680        0.000001750508954        0.000369697214052
        0.372508186281770       -0.000001575986287        0.000001916954797        0.000402226284769
        0.374927070608275       -0.000001709218338        0.000002079013999        0.000433422478786
        0.377345954934780       -0.000001844170605        0.000002243161835        0.000464651956961
        0.379764839261285       -0.000001973536973        0.000002400519169        0.000494087279932
        0.382183723587790       -0.000002104536490        0.000002559859209        0.000523556066399
        0.384602607914295       -0.000002228019955        0.000002710061068        0.000550798199257
        0.387021492240800       -0.000002353025535        0.000002862110552        0.000578073470829
        0.389440376567305       -0.000002468665253        0.000003002771900        0.000602725286380
        0.391859260893810       -0.000002585693765        0.000003145118678        0.000627409402901
        0.394278145220315       -0.000002691620473        0.000003273965866        0.000649115298667
        0.396697029546820       -0.000002798782392        0.000003404311642        0.000670852143139
        0.399115913873325       -0.000002893252735        0.000003519224160        0.000689303705918
        0.401534798199830       -0.000002988786788        0.000003635426627        0.000707784356466
        0.403953682526335       -0.000003070216145        0.000003734477030        0.000722725268223
        0.406372566852840       -0.000003152522420        0.000003834590138        0.000737692911410
        0.408791451179345       -0.000003219515625        0.000003916081409        0.000748923018346
        0.411210335505850       -0.000003287186535        0.000003998393025        0.000760177025557
        0.413629219832355       -0.000003338565915        0.000004060892679        0.000767555505650
        0.416048104158860       -0.000003390414424        0.000004123958922        0.000774954607751
        0.418466988485365       -0.000003425244609        0.000004166329183        0.000778402186537
        0.420885872811870       -0.000003460329197        0.000004209004785        0.000781866696467
        0.423304757138375       -0.000003477938211        0.000004230428238        0.000781366876130
        0.425723641464880       -0.000003495584057        0.000004251892315        0.000780879924379
        0.428142525791385       -0.000003495580256        0.000004251892508        0.000776479207019
        0.430561410117890       -0.000003495396220        0.000004251669216        0.000772086970779
        0.432980294444395       -0.000003477680696        0.000004230125752        0.000763894072855
        0.435399178770900       -0.000003459571720        0.000004208099371        0.000755704995741
        0.437818063097405       -0.000003424345880        0.000004165257135        0.000743889066846
        0.440236947423910       -0.000003388520511        0.000004121681223        0.000732072082253
        0.442655831750415       -0.000003336288623        0.000004058153473        0.000716859957293
        0.445074716076920       -0.000003283261436        0.000003993653825        0.000701641744398
        0.447493600403425       -0.000003214827984        0.000003910418986        0.000683314273724
        0.449912484729930       -0.000003145416790        0.000003825990231        0.000664975590594
        0.452331369056435       -0.000003061878615        0.000003724382340        0.000643863107329
        0.454750253382940       -0.000002977196385        0.000003621378136        0.000622734260351
        0.457169137709445       -0.000002879929647        0.000003503070987        0.000599211257962
        0.459588022035950       -0.000002781371229        0.000003383187858        0.000575666780573
        0.462006906362455       -0.000002672013326        0.000003250173018        0.000550145886293
        0.464425790688960       -0.000002561237064        0.000003115428012        0.000524598512606
        0.466844675015465       -0.000002441663735        0.000002969986972        0.000497523853537
        0.469263559341970       -0.000002320568253        0.000002822689420        0.000470417883669
        0.471682443668475       -0.000002192866179        0.000002667360274        0.000442257952058
