#           time (fs)    |     mu_x (e.angstrom)   |     mu_y (e.angstrom)   |     mu_z (e.angstrom)   |
        0.000000000000000       -0.000000000000000       -0.000000000000000        0.000000000000000
        0.002418884326505        0.000000005462847        0.000000002213475        0.000090639053210
        0.004837768653010        0.000000044008170        0.000000017832765        0.000365113887238
        0.007256652979515        0.000000115357323        0.000000046743857        0.000638081760529
        0.009675537306020        0.000000263172283        0.000000106641156        0.001091843470436
        0.012094421632525        0.000000464703375        0.000000188303133        0.001542458647785
        0.014513305959030        0.000000783659083        0.000000317549614        0.002167760588786
        0.016932190285535        0.000001175862569        0.000000476473919        0.002788183890758
        0.019351074612040        0.000001722587088        0.000000698016343        0.003574223410436
        0.021769958938545        0.000002360326466        0.000000956434551        0.004353589872945
        0.024188843265050        0.000003184477848        0.000001290395699        0.005286688126369
        0.026607727591555        0.000004115300197        0.000001667575218        0.006211287955169
        0.029026611918060        0.000005258004739        0.000002130621400        0.007275116282488
        0.031445496244565        0.000006520622299        0.000002642250609        0.008328621823664
        0.033864380571070        0.000008013113885        0.000003247040782        0.009504470901305
        0.036283264897575        0.000009636091648        0.000003904697748        0.010668205831302
        0.038702149224080        0.000011498583645        0.000004659426949        0.011935293126966
        0.041121033550585        0.000013499263492        0.000005470144065        0.013188539395185
        0.043539917877090        0.000015740079660        0.000006378191821        0.014524349852741
        0.045958802203595        0.000018123766450        0.000007344126572        0.015844687315901
        0.048377686530100        0.000020738751730        0.000008403818666        0.017225341678197
        0.050796570856605        0.000023498181181        0.000009522038479        0.018589014857388
        0.053215455183110        0.000026470407251        0.000010726528010        0.019989659611714
        0.055634339509615        0.000029585509428        0.000011988914701        0.021371965588758
        0.058053223836120        0.000032885283635        0.000013326185822        0.022767178193110
        0.060472108162625        0.000036323249608        0.000014719462592        0.024142869344604
        0.062890992489130        0.000039908429431        0.000016172457723        0.025507072173843
        0.065309876815635        0.000043624082237        0.000017678339088        0.026850767229236
        0.067728761142140        0.000047440690974        0.000019225207784        0.028158643564435
        0.070147645468645        0.000051377155593        0.000020820670241        0.029445240364737
        0.072566529795150        0.000055360288566        0.000022435135334        0.030672145741172
        0.074985414121655        0.000059449949291        0.000024092804024        0.031877229071925
        0.077404298448160        0.000063524953702        0.000025744638205        0.032999591399245
        0.079823182774665        0.000067690681205        0.000027433282420        0.034099829373094
        0.082242067101170        0.000071774586944        0.000029088886101        0.035095531442930
        0.084660951427675        0.000075931211562        0.000030774014178        0.036069054111487
        0.087079835754180        0.000079934384873        0.000032397083338        0.036917792409471
        0.089498720080685        0.000083990387387        0.000034041625407        0.037744546587265
        0.091917604407190        0.000087818374457        0.000035593896202        0.038428160722820
        0.094336488733695        0.000091677760848        0.000037158961343        0.039090235403057
        0.096755373060200        0.000095233284189        0.000038601016591        0.039593002955013
        0.099174257386705        0.000098797606796        0.000040046709364        0.040074920181018
        0.101593141713210        0.000101982673769        0.000041338830627        0.040383812322328
        0.104012026039715        0.000105153157870        0.000042625110549        0.040672778942384
        0.106430910366220        0.000107871238031        0.000043728158456        0.040777672844005
        0.108849794692725        0.000110550970291        0.000044815724987        0.040863789211842
        0.111268679019230        0.000112709196331        0.000045692029669        0.040757633924321
        0.113687563345735        0.000114805329787        0.000046543214537        0.040634056302865
        0.116106447672240        0.000116316675873        0.000047157457635        0.040312989563237
        0.118525331998745        0.000117742605278        0.000047737105943        0.039976043734411
        0.120944216325250        0.000118527996485        0.000048057175569        0.039439457933937
        0.123363100651755        0.000119205457829        0.000048333497116        0.038888702300495
        0.125781984978260        0.000119195765188        0.000048331297438        0.038139258663016
        0.128200869304765        0.000119056814154        0.000048276669978        0.037377495937181
        0.130619753631270        0.000118194691555        0.000047928867731        0.036421086785431
        0.133038637957775        0.000117183517515        0.000047520574612        0.035454324180461
        0.135457522284280        0.000115425039300        0.000046809265827        0.034299983995346
        0.137876406610785        0.000113499574130        0.000046030151448        0.033137342656952
        0.140295290937290        0.000110815635669        0.000044943433022        0.031797109449175
        0.142714175263795        0.000107948920241        0.000043782460923        0.030450684670688
        0.145133059590300        0.000104326367991        0.000042314893293        0.028939413972204
        0.147551943916805        0.000100507643475        0.000040767593393        0.027424088517537
        0.149970828243310        0.000095950105982        0.000038920542517        0.025759223049328
        0.152389712569815        0.000091185602152        0.000036989335963        0.024092436648640
        0.154808596896320        0.000085713999007        0.000034771185036        0.022293735419405
        0.157227481222825        0.000080027397351        0.000032465577397        0.020495214192065
        0.159646365549330        0.000073680109226        0.000029891801154        0.018584445418396
        0.162065249875835        0.000067112664814        0.000027228437149        0.016675895605470
        0.164484134202340        0.000059945354200        0.000024321534240        0.014676498408035
        0.166903018528845        0.000052555666830        0.000021324109839        0.012681269352311
        0.169321902855350        0.000044640745928        0.000018113391536        0.010617989665704
        0.171740787181855        0.000036504177890        0.000014812422070        0.008560711452531
        0.174159671508360        0.000027929927053        0.000011333658405        0.006459217981418
        0.176578555834865        0.000019137671836        0.000007766104169        0.004365419541268
        0.178997440161370        0.000010007019008        0.000004061031513        0.002251905896354
        0.181416324487875        0.000000664832271        0.000000269785246        0.000147619664168
        0.183835208814380       -0.000008906189274       -0.000003614517833       -0.001951600986054
        0.186254093140885       -0.000018679578275       -0.000007581274350       -0.004040241563219
        0.188672977467390       -0.000028563669892       -0.000011593133302       -0.006099142887731
        0.191091861793895       -0.000038638441609       -0.000015682693546       -0.008146306607227
        0.193510746120400       -0.000048699146685       -0.000019766693887       -0.010139550118787
        0.195929630446905       -0.000058936538295       -0.000023922699187       -0.012120105661100
        0.198348514773410       -0.000069030581053       -0.000028020637696       -0.014023430000865
        0.200767399099915       -0.000079285260470       -0.000032184043152       -0.015913331675231
        0.203186283426420       -0.000089265075007       -0.000036235957373       -0.017703924046349
        0.205605167752925       -0.000099387700112       -0.000040346073971       -0.019480579573822
        0.208024052079430       -0.000109104104075       -0.000044291331336       -0.021137423494560
        0.210442936405935       -0.000118944021108       -0.000048286925374       -0.022780038060537
        0.212861820732440       -0.000128248984862       -0.000052065351744       -0.024284231999076
        0.215280705058945       -0.000137657016442       -0.000055885781180       -0.025774123199366
        0.217699589385450       -0.000146406475929       -0.000059438807499       -0.027109165129034
        0.220118473711955       -0.000155237746647       -0.000063025173827       -0.028430043909796
        0.222537358038460       -0.000163294406456       -0.000066296978886       -0.029582077377576
        0.224956242364965       -0.000171411152439       -0.000069593272463       -0.030720290622054
        0.227375126691470       -0.000178647224936       -0.000072531899496       -0.031678308545530
        0.229794011017975       -0.000185921533225       -0.000075486116075       -0.032623039580414
        0.232212895344480       -0.000192221360005       -0.000078044541105       -0.033379042668871
        0.234631779670985       -0.000198537784121       -0.000080609747523       -0.034122466640238
        0.237050663997490       -0.000203800287428       -0.000082746877982       -0.034671574063139
        0.239469548323995       -0.000209058287017       -0.000084882205665       -0.035208965855102
        0.241888432650500       -0.000213199201249       -0.000086563788841       -0.035549476543977
        0.244307316977005       -0.000217315356251       -0.000088235334842       -0.035879269670631
        0.246726201303510       -0.000220269193062       -0.000089434757192       -0.036012673425864
        0.249145085630015       -0.000223179146360       -0.000090616373986       -0.036136469106509
        0.251563969956520       -0.000224900851206       -0.000091315334140       -0.036067407475995
        0.253982854283025       -0.000226560938134       -0.000091989291269       -0.035989933892278
        0.256401738609530       -0.000227027201278       -0.000092178331743       -0.035726111581601
        0.258820622936035       -0.000227415729581       -0.000092335834560       -0.035455134100437
        0.261239507262540       -0.000226625920469       -0.000092014719641       -0.035007182451335
        0.263658391589045       -0.000225744070284       -0.000091656272939       -0.034553366366834
        0.266077275915550       -0.000223720770755       -0.000090834202918       -0.033934661190123
        0.268496160242055       -0.000221593090757       -0.000089969809881       -0.033311389279022
        0.270915044568560       -0.000218382209586       -0.000088665464717       -0.032537826038081
        0.273333928895065       -0.000215056692521       -0.000087314654603       -0.031760973925095
        0.275752813221570       -0.000210727151252       -0.000085556063153       -0.030850703925714
        0.278171697548075       -0.000206274879530       -0.000083747744117       -0.029938376906933
        0.280590581874580       -0.000200917867234       -0.000081571978182       -0.028911508748850
        0.283009466201085       -0.000195432226958       -0.000079344114814       -0.027883744313279
        0.285428350527590       -0.000189160029413       -0.000076796810459       -0.026762015389310
        0.287847234854095       -0.000182755499031       -0.000074195928741       -0.025640456202133
        0.290266119180600       -0.000175699915574       -0.000071330640463       -0.024446879484852
        0.292685003507105       -0.000168510443127       -0.000068411166016       -0.023254422043581
        0.295103887833610       -0.000160820812147       -0.000065288562431       -0.022012913770587
        0.297522772160115       -0.000152997802728       -0.000062112000962       -0.020773338310591
        0.299941656486620       -0.000144838664127       -0.000058798913648       -0.019508332462431
        0.302360540813125       -0.000136548606493       -0.000055432885471       -0.018245919966452
        0.304779425139630       -0.000128097036422       -0.000052001225367       -0.016981975622520
        0.307198309466135       -0.000119518804684       -0.000048518368617       -0.015721117975768
        0.309617193792640       -0.000110961464321       -0.000045043926981       -0.014482525730249
        0.312036078119145       -0.000102283336972       -0.000041520686723       -0.013247335156078
        0.314454962445650       -0.000093813282926       -0.000038081839943       -0.012057728777274
        0.316873846772155       -0.000085229727282       -0.000034597162638       -0.010871652686967
        0.319292731098660       -0.000077043036239       -0.000031273502217       -0.009753632108958
        0.321711615425165       -0.000068751311324       -0.000027907457032       -0.008639079402867
        0.324130499751670       -0.000061043575796       -0.000024778367740       -0.007613850950039
        0.326549384078175       -0.000053240210852       -0.000021610717822       -0.006591835617466
        0.328968268404680       -0.000046202966132       -0.000018753928319       -0.005678875082474
        0.331387152731185       -0.000039080175140       -0.000015862676439       -0.004768682667115
        0.333806037057690       -0.000032897319857       -0.000013352807598       -0.003985426495545
        0.336224921384195       -0.000026639414623       -0.000010812741453       -0.003204308625815
        0.338643805710700       -0.000021483688473       -0.000008719878063       -0.002565878011427
        0.341062690037205       -0.000016263553963       -0.000006601140998       -0.001928779746190
        0.343481574363710       -0.000012293136286       -0.000004989452620       -0.001447741915898
        0.345900458690215       -0.000008268831867       -0.000003356165503       -0.000967066132495
        0.348319343016720       -0.000005624123703       -0.000002282601796       -0.000653236508142
        0.350738227343225       -0.000002935672830       -0.000001191561384       -0.000338648969401
        0.353157111669730       -0.000001736322895       -0.000000704646405       -0.000198937243065
        0.355575995996235       -0.000000502751497       -0.000000204124595       -0.000057215332253
        0.357994880322740       -0.000000844983224       -0.000000342873222       -0.000095517793621
        0.360413764649245       -0.000001161663646       -0.000000471540257       -0.000130445211469
        0.362832648975750       -0.000003115956078       -0.000001264518144       -0.000347584930907
        0.365251533302255       -0.000005052308990       -0.000002050511041       -0.000559893918223
        0.367670417628760       -0.000008661478892       -0.000003515057355       -0.000953609629658
        0.370089301955265       -0.000012259080085       -0.000004975212616       -0.001340971524540
        0.372508186281770       -0.000017536806344       -0.000007116842239       -0.001905955280533
        0.374927070608275       -0.000022807938946       -0.000009256109319       -0.002463019453464
        0.377345954934780       -0.000029737763164       -0.000012068108295       -0.003191002353935
        0.379764839261285       -0.000036664448612       -0.000014879157392       -0.003909482799685
        0.382183723587790       -0.000045199277949       -0.000018342382232       -0.004789367338175
        0.384602607914295       -0.000053732811124       -0.000021805416717       -0.005658175453229
        0.387021492240800       -0.000063794941016       -0.000025888304728       -0.006676212293155
        0.389440376567305       -0.000073855946528       -0.000029971085136       -0.007681633643703
        0.391859260893810       -0.000085337612065       -0.000034629879329       -0.008821639943575
        0.394278145220315       -0.000096816629797       -0.000039287962175       -0.009947552143650
        0.396697029546820       -0.000109581085443       -0.000044467150611       -0.011191167905867
        0.399115913873325       -0.000122339684366       -0.000049644341609       -0.012419296089048
        0.401534798199830       -0.000136222802498       -0.000055277307276       -0.013746274421921
        0.403953682526335       -0.000150095212588       -0.000060906324777       -0.015056480212945
        0.406372566852840       -0.000164907582209       -0.000066916198354       -0.016445006878811
        0.408791451179345       -0.000179702825201       -0.000072919539113       -0.017815606262297
        0.411210335505850       -0.000195232323261       -0.000079220243372       -0.019242643443712
        0.413629219832355       -0.000210736814115       -0.000085511239131       -0.020650748493254
        0.416048104158860       -0.000226751613389       -0.000092008710235       -0.022092397350471
        0.418466988485365       -0.000242732195886       -0.000098492760200       -0.023514276428803
        0.420885872811870       -0.000258984165365       -0.000105086327941       -0.024946152749737
        0.423304757138375       -0.000275191537349       -0.000111662288983       -0.026357603524003
        0.425723641464880       -0.000291419983830       -0.000118246195041       -0.027755220586046
        0.428142525791385       -0.000307592460377       -0.000124807908562       -0.029131950024639
        0.430561410117890       -0.000323528153431       -0.000131272939256       -0.030471102697818
        0.432980294444395       -0.000339395709826       -0.000137710871068       -0.031789108128655
        0.435399178770900       -0.000354765126787       -0.000143946078831       -0.033046252252167
        0.437818063097405       -0.000370053657700       -0.000150149046203       -0.034282197567065
        0.440236947423910       -0.000384583380731       -0.000156043532210       -0.035434818725396
        0.442655831750415       -0.000399019107499       -0.000161900490452       -0.036566399910535
        0.445074716076920       -0.000412440301386       -0.000167345219474       -0.037593365918957
        0.447493600403425       -0.000425754255929       -0.000172747079102       -0.038599660275296
        0.449912484729930       -0.000437807152930       -0.000177636696761       -0.039481551954229
        0.452331369056435       -0.000449739664627       -0.000182478141434       -0.040343345640801
        0.454750253382940       -0.000460177981627       -0.000186712763633       -0.041062760809872
        0.457169137709445       -0.000470483092447       -0.000190894038678       -0.041762849692788
        0.459588022035950       -0.000479078305828       -0.000194380983096       -0.042304675742748
        0.462006906362455       -0.000487528039222       -0.000197809624557       -0.042828134957955
        0.464425790688960       -0.000494073444219       -0.000200465054677       -0.043179785855386
        0.466844675015465       -0.000500461854744       -0.000203057529431       -0.043514203987184
        0.469263559341970       -0.000504776338708       -0.000204807982646       -0.043665818125541
        0.471682443668475       -0.000508923272005       -0.000206491211250       -0.043801492458103
