#           time (fs)    |     mu_x (e.angstrom)   |     mu_y (e.angstrom)   |     mu_z (e.angstrom)   |
        0.000000000000000       -0.000000000000000       -0.000000000000000        0.000000000000000
        0.002418884326505       -0.000000001534419        0.000000002726685        0.000013195234407
        0.004837768653010       -0.000000006131592        0.000000010905852        0.000026375761642
        0.007256652979515       -0.000000013722272        0.000000024399436        0.000039339850800
        0.009675537306020       -0.000000053980378        0.000000096011207        0.000116073160254
        0.012094421632525       -0.000000111827914        0.000000198888303        0.000192338745692
        0.014513305959030       -0.000000275604273        0.000000490198308        0.000394988831662
        0.016932190285535       -0.000000485829944        0.000000864095256        0.000596730615263
        0.019351074612040       -0.000000916728349        0.000001630521301        0.000985133513743
        0.021769958938545       -0.000001436347246        0.000002554710607        0.001371849122437
        0.024188843265050       -0.000002329333293        0.000004143023859        0.002002029015604
        0.026607727591555       -0.000003365436400        0.000005985845014        0.002629260070256
        0.029026611918060       -0.000004960736320        0.000008823318216        0.003552204421729
        0.031445496244565       -0.000006763979169        0.000012030596505        0.004470319592655
        0.033864380571070       -0.000009339390412        0.000016611327301        0.005730834556535
        0.036283264897575       -0.000012195925862        0.000021692025240        0.006983895942980
        0.038702149224080       -0.000016057706167        0.000028560731210        0.008619562579025
        0.041121033550585       -0.000020279737282        0.000036070145615        0.010244295997855
        0.043539917877090       -0.000025752275402        0.000045803792334        0.012284546783111
        0.045958802203595       -0.000031667440533        0.000056324674264        0.014309435440320
        0.048377686530100       -0.000039081945147        0.000069512357148        0.016774769145438
        0.050796570856605       -0.000047021780165        0.000083634390387        0.019219288646502
        0.053215455183110       -0.000056704252977        0.000100855943378        0.022120639804941
        0.055634339509615       -0.000066992004093        0.000119154067811        0.024994650504386
        0.058053223836120       -0.000079250787453        0.000140957915344        0.028332927424913
        0.060472108162625       -0.000092188871226        0.000163970022757        0.031636237710387
        0.062890992489130       -0.000107302078987        0.000190850824045        0.035402040271982
        0.065309876815635       -0.000123159502822        0.000219055383624        0.039124151538590
        0.067728761142140       -0.000141362654467        0.000251432038523        0.043297676893937
        0.070147645468645       -0.000160362720402        0.000285226226182        0.047417717733820
        0.072566529795150       -0.000181836902173        0.000323420818384        0.051968858593461
        0.074985414121655       -0.000204145518247        0.000363099726740        0.056455712175025
        0.077404298448160       -0.000229006390423        0.000407317971953        0.061344348635901
        0.079823182774665       -0.000254721307138        0.000453055465696        0.066156973473035
        0.082242067101170       -0.000283009263703        0.000503369209483        0.071333455500871
        0.084660951427675       -0.000312150537876        0.000555200963830        0.076421395929938
        0.087079835754180       -0.000343822303657        0.000611533236157        0.081827209727828
        0.089498720080685       -0.000376324268665        0.000669342454643        0.087131288545367
        0.091917604407190       -0.000411246190136        0.000731455536796        0.092699896269443
        0.094336488733695       -0.000446951180733        0.000794961789834        0.098153078264464
        0.096755373060200       -0.000484894430896        0.000862448685739        0.103810917007089
        0.099174257386705       -0.000523548473357        0.000931200244829        0.109339328669696
        0.101593141713210       -0.000564186349475        0.001003479874739        0.115006951434060
        0.104012026039715       -0.000605436984987        0.001076849840979        0.120531039042524
        0.106430910366220       -0.000648344431746        0.001153166193335        0.126124377673308
        0.108849794692725       -0.000691740793907        0.001230352635244        0.131560183338567
        0.111268679019230       -0.000736396235200        0.001309778024678        0.136991911119821
        0.113687563345735       -0.000781391452740        0.001389808251783        0.142252444257353
        0.116106447672240       -0.000827180964089        0.001471250740207        0.147433414181715
        0.118525331998745       -0.000873136908698        0.001552989747795        0.152430094315913
        0.120944216325250       -0.000919360710715        0.001635204693730        0.157270827881626
        0.123363100651755       -0.000965555058585        0.001717367722897        0.161914973670563
        0.125781984978260       -0.001011436261077        0.001798973333830        0.166327174462291
        0.128200869304765       -0.001057071786497        0.001880142401605        0.170531513341314
        0.130619753631270       -0.001101767263853        0.001959639077089        0.174429579564187
        0.133038637957775       -0.001145983235012        0.002038283245653        0.178109752407032
        0.135457522284280       -0.001188596467374        0.002114076416787        0.181412262922858
        0.137876406610785       -0.001230481969192        0.002188575490203        0.184488298559037
        0.140295290937290       -0.001270077641203        0.002259001585199        0.187119447762551
        0.142714175263795       -0.001308686608205        0.002327672847708        0.189517183013963
        0.145133059590300       -0.001344306718521        0.002391027944546        0.191408141026840
        0.147551943916805       -0.001378674423045        0.002452155487365        0.193060563079653
        0.149970828243310       -0.001409355623645        0.002506726153819        0.194150739175409
        0.152389712569815       -0.001438516331355        0.002558592278138        0.194999228535066
        0.154808596896320       -0.001463308186377        0.002602688047322        0.195237417390881
        0.157227481222825       -0.001486313662596        0.002643606180578        0.195232871336810
        0.159646365549330       -0.001504297492256        0.002675593067175        0.194578263600520
        0.162065249875835       -0.001520236019269        0.002703941588110        0.193682081930893
        0.164484134202340       -0.001530543975655        0.002722276017054        0.192105122664887
        0.166903018528845       -0.001538559523233        0.002736532353245        0.190290039578542
        0.169321902855350       -0.001540393531706        0.002739794849421        0.187773120378402
        0.171740787181855       -0.001539704710926        0.002738569189306        0.185023868566813
        0.174159671508360       -0.001532354903787        0.002725497164230        0.181561841539714
        0.176578555834865       -0.001522273328169        0.002707565114914        0.177875636948208
        0.178997440161370       -0.001505135596483        0.002677084084978        0.173476141266411
        0.181416324487875       -0.001485083274817        0.002641417607687        0.168862979524058
        0.183835208814380       -0.001457675570028        0.002592670188816        0.163546573934828
        0.186254093140885       -0.001427200962303        0.002538466156431        0.158029332138706
        0.188672977467390       -0.001389177991884        0.002470838202363        0.151829429602936
        0.191091861793895       -0.001347970373715        0.002397543948327        0.145443769961828
        0.193510746120400       -0.001299136354565        0.002310687234384        0.138406373492757
        0.195929630446905       -0.001247038156564        0.002218022499710        0.131200448267854
        0.198348514773410       -0.001187357316316        0.002111873400987        0.123383690023689
        0.200767399099915       -0.001124374132919        0.001999848136032        0.115417650220662
        0.203186283426420       -0.001053978682609        0.001874641808085        0.106891138936601
        0.205605167752925       -0.000980286679827        0.001743569347928        0.098236452266202
        0.208024052079430       -0.000899482021132        0.001599848988821        0.089080437149384
        0.210442936405935       -0.000815432514152        0.001450354194798        0.079819023835646
        0.212861820732440       -0.000724699490225        0.001288975048792        0.070123386040136
        0.215280705058945       -0.000630820509151        0.001121997093052        0.060346584062027
        0.217699589385450       -0.000530814559182        0.000944124947166        0.050209669753287
        0.220118473711955       -0.000427809273842        0.000760914510636        0.040017043998299
        0.222537358038460       -0.000319356407056        0.000568018534153        0.029544355747831
        0.224956242364965       -0.000208098338603        0.000370129289426        0.019042368272948
        0.227375126691470       -0.000092187902427        0.000163969171356        0.008345134033378
        0.229794011017975        0.000026287090451       -0.000046756471177       -0.002354304890483
        0.232212895344480        0.000148512812080       -0.000264149022676       -0.013160663749635
        0.234631779670985        0.000273017722499       -0.000485599816781       -0.023941741946630
        0.237050663997490        0.000400276982397       -0.000711945038234       -0.034739220164866
        0.239469548323995        0.000529487907560       -0.000941766251574       -0.045483843511694
        0.241888432650500        0.000660375879854       -0.001174565466210       -0.056153514128318
        0.244307316977005        0.000792849161491       -0.001410189366989       -0.066742975001742
        0.246726201303510        0.000925857016802       -0.001646758912469       -0.077166678210279
        0.249145085630015        0.001060049034742       -0.001885439974941       -0.087483346235449
        0.251563969956520        0.001193585427827       -0.002122949422036       -0.097545378237345
        0.253982854283025        0.001327874754624       -0.002361803731383       -0.107474386562999
        0.256401738609530        0.001460289392959       -0.002597317803972       -0.117063161549999
        0.258820622936035        0.001593000964872       -0.002833366047455       -0.126494061751165
        0.261239507262540        0.001722609878605       -0.003063889568706       -0.135503720401379
        0.263658391589045        0.001852040791149       -0.003294102916257       -0.144332079446164
        0.266077275915550        0.001977152883080       -0.003516628031582       -0.152664018030684
        0.268496160242055        0.002101599378849       -0.003737976136937       -0.160792931537345
        0.270915044568560        0.002220543798592       -0.003949531002923       -0.168357226887156
        0.273333928895065        0.002338328981916       -0.004159031297480       -0.175698724123594
        0.275752813221570        0.002449482841789       -0.004356729378697       -0.182415431276432
        0.278171697548075        0.002558984629828       -0.004551496785856       -0.188891748991186
        0.280590581874580        0.002660800562037       -0.004732585869399       -0.194692050293581
        0.283009466201085        0.002760479365572       -0.004909882038116       -0.200236754482640
        0.285428350527590        0.002851512411159       -0.005071792059635       -0.205063941225986
        0.287847234854095        0.002939938031129       -0.005229073203060       -0.209622878296119
        0.290266119180600        0.003018871351376       -0.005369461978367       -0.213433148576157
        0.292685003507105        0.003094748579212       -0.005504424407030       -0.216965210015196
        0.295103887833610        0.003160417489660       -0.005621220380231       -0.219728269370762
        0.297522772160115        0.003222609911057       -0.005731842839820       -0.222205956951538
        0.299941656486620        0.003274023757258       -0.005823283992637       -0.223905411433278
        0.302360540813125        0.003321575279693       -0.005907865953217       -0.225315193083917
        0.304779425139630        0.003357936701658       -0.005972534069701       -0.225948727644484
        0.307198309466135        0.003390090356014       -0.006029729166605       -0.226291177398290
        0.309617193792640        0.003410811525259       -0.006066578713141       -0.225870515875886
        0.312036078119145        0.003427025130747       -0.006095422608900       -0.225160234708367
        0.314454962445650        0.003431740589181       -0.006103803570040       -0.223710881124648
        0.316873846772155        0.003431698918167       -0.006103735591000       -0.221976198953256
        0.319292731098660        0.003420274701438       -0.006083409696613       -0.219536963331678
        0.321711615425165        0.003403897836158       -0.006054287696408       -0.216819425954748
        0.324130499751670        0.003376436624902       -0.006005437583827       -0.213441741343572
        0.326549384078175        0.003343884260956       -0.005947545597744       -0.209795389587611
        0.328968268404680        0.003300726371030       -0.005870776572873       -0.205542430402452
        0.331387152731185        0.003252397892185       -0.005784824951004       -0.201032882190515
        0.333806037057690        0.003194117988545       -0.005681159143288       -0.195978497333290
        0.336224921384195        0.003130648212963       -0.005568276984822       -0.190681846739038
        0.338643805710700        0.003058047710577       -0.005439139830911       -0.184909324159645
        0.341062690037205        0.002980298289149       -0.005300859685191       -0.178910874725922
        0.343481574363710        0.002894393486884       -0.005148058823072       -0.172511557122730
        0.345900458690215        0.002803440018651       -0.004986293772976       -0.165904409749245
        0.348319343016720        0.002705446097330       -0.004811990579918       -0.158976183901549
        0.350738227343225        0.002602561113585       -0.004629003977195       -0.151859702387040
        0.353157111669730        0.002493872215647       -0.004435678138249       -0.144505387118887
        0.355575995996235        0.002380504271606       -0.004234046415688       -0.136983566916124
        0.357994880322740        0.002262669965280       -0.004024454061546       -0.129309226842428
        0.360413764649245        0.002140419164174       -0.003807023199747       -0.121488994681936
        0.362832648975750        0.002015117677735       -0.003584149299766       -0.113602208617202
        0.365251533302255        0.001885708034721       -0.003353985673115       -0.105591682307007
        0.367670417628760        0.001754716724020       -0.003120991507364       -0.097599796456024
        0.370089301955265        0.001619965854066       -0.002881327970330       -0.089506535300277
        0.372508186281770        0.001485129436729       -0.002641494629408       -0.081514932034126
        0.374927070608275        0.001346916119205       -0.002395672826268       -0.073444208868897
        0.377345954934780        0.001210113269377       -0.002152341795178       -0.065554621962535
        0.379764839261285        0.001070343500144       -0.001903751779497       -0.057607747729359
        0.382183723587790        0.000933452446117       -0.001660263748124       -0.049916654357258
        0.384602607914295        0.000794024633173       -0.001412282078908       -0.042189385388162
        0.387021492240800        0.000658888434816       -0.001171915183048       -0.034786503920429
        0.389440376567305        0.000521658424324       -0.000927842719129       -0.027367560678480
        0.391859260893810        0.000390050626228       -0.000693751449902       -0.020334481394705
        0.394278145220315        0.000256797260447       -0.000456752090334       -0.013304205314684
        0.396697029546820        0.000130388619281       -0.000231908114322       -0.006713178587665
        0.399115913873325        0.000002780525983       -0.000004949729039       -0.000142350934292
        0.401534798199830       -0.000116892503794        0.000207914163981        0.005944745709070
        0.403953682526335       -0.000237328209744        0.000422115402527        0.011995902331683
        0.406372566852840       -0.000348892578464        0.000620557062202        0.017528400501809
        0.408791451179345       -0.000460799035731        0.000819587798125        0.023011021098698
        0.411210335505850       -0.000563071182347        0.001001502106784        0.027950087433931
        0.413629219832355       -0.000665287370388        0.001183297311247        0.032827251218275
        0.416048104158860       -0.000757295740551        0.001346956234909        0.037146293391300
        0.418466988485365       -0.000848878381043        0.001509838160936        0.041393389517532
        0.420885872811870       -0.000929881904090        0.001653923612621        0.045078237259561
        0.423304757138375       -0.001010123217880        0.001796633378481        0.048683105536283
        0.425723641464880       -0.001079625348088        0.001920262191924        0.051731965945915
        0.428142525791385       -0.001148066291032        0.002041983323173        0.054694812674848
        0.430561410117890       -0.001205824305566        0.002144723789913        0.057118003297559
        0.432980294444395       -0.001262262994104        0.002245097205795        0.059451096505764
        0.435399178770900       -0.001308292330949        0.002326976790204        0.061270563636403
        0.437818063097405       -0.001352787458821        0.002406106881161        0.062997715814128
        0.440236947423910       -0.001387360970255        0.002467610892112        0.064246349107226
        0.442655831750415       -0.001420230109175        0.002526062497746        0.065402199063821
        0.445074716076920       -0.001443872198135        0.002568123658873        0.066122956782525
        0.447493600403425       -0.001465684965852        0.002606909916873        0.066752065348275
        0.449912484729930       -0.001479160662404        0.002630888937205        0.066996927419505
        0.452331369056435       -0.001490726830248        0.002651450131458        0.067152704440804
        0.454750253382940       -0.001495025952435        0.002659107533055        0.066981472915567
        0.457169137709445       -0.001497378650479        0.002663281222160        0.066724955327812
        0.459588022035950       -0.001493695277670        0.002656740830519        0.066203923896458
        0.462006906362455       -0.001488069538813        0.002646723685909        0.065602426644209
        0.464425790688960       -0.001477777106264        0.002628428332231        0.064802942564675
        0.466844675015465       -0.001465584071005        0.002606730258161        0.063928605811656
        0.469263559341970       -0.001450206471797        0.002579390380329        0.062925549016404
        0.471682443668475       -0.001433003653226        0.002548781626365        0.061853806488065
