#           time (fs)       | force (atom_1) (H/b)   |  force (atom_2) (H/b)  |           ...          |  force (atom_N) (H/b)  |
        0.000000000000000       -0.000000000000000       -0.000000000000000       -0.001977038000788       -0.000000000000000       -0.000000000000000        0.001977038000788
        0.120944216325250        0.000007517995604       -0.000007876894961       -0.002240538921148       -0.000007517995604        0.000007876894941        0.002240538921148
        0.241888432650500        0.000016578940694       -0.000015624334982       -0.002469280657828       -0.000016578940694        0.000015624334987        0.002469280657828
        0.362832648975750        0.000026808343664       -0.000029874108228       -0.002660718046728       -0.000026808343664        0.000029874108282        0.002660718046728
        0.483776865301000        0.000037797428811       -0.000036359930392       -0.002812373171058       -0.000037797428811        0.000036359930373        0.002812373171058
        0.604721081626250        0.000049119297602       -0.000051556256565       -0.002922727111731       -0.000049119297602        0.000051556256492        0.002922727111731
        0.725665297951500        0.000060325504899       -0.000057991898053       -0.002990245257247       -0.000060325504899        0.000057991898088        0.002990245257247
        0.846609514276750        0.000070967174585       -0.000075167040223       -0.003014279794926       -0.000070967174585        0.000075167040296        0.003014279794926
        0.967553730602000        0.000080592495598       -0.000080052466252       -0.002994415576050       -0.000080592495598        0.000080052466207        0.002994415576050
        1.088497946927250        0.000088772409392       -0.000090635245109       -0.002931182848110       -0.000088772409392        0.000090635245053        0.002931182848110
        1.209442163252500        0.000095079360144       -0.000094981276976       -0.002824946621530       -0.000095079360144        0.000094981277016        0.002824946621530
        1.330386379577750        0.000099132942558       -0.000101614231570       -0.002677209891986       -0.000099132942558        0.000101614231596        0.002677209891986
        1.451330595903000        0.000100588767806       -0.000105720237667       -0.002489858988501       -0.000100588767806        0.000105720237650        0.002489858988501
        1.572274812228250        0.000099146245842       -0.000098693996157       -0.002265190442487       -0.000099146245842        0.000098693996159        0.002265190442487
        1.693219028553500        0.000094525717292       -0.000101734374900       -0.002005277096683       -0.000094525717292        0.000101734374877        0.002005277096683
        1.814163244878750        0.000086543302377       -0.000086305515277       -0.001713523157890       -0.000086543302377        0.000086305515252        0.001713523157890
        1.935107461204000        0.000075088686165       -0.000090461435037       -0.001393820522562       -0.000075088686165        0.000090461435109        0.001393820522562
        2.056051677529250        0.000060053047443       -0.000058353068463       -0.001049216864019       -0.000060053047443        0.000058353068491        0.001049216864019
        2.176995893854500        0.000041394884686       -0.000059644414387       -0.000683104708975       -0.000041394884686        0.000059644414263        0.000683104708975
        2.297940110179750        0.000019189903958       -0.000018804774735       -0.000300038179356       -0.000019189903958        0.000018804774717        0.000300038179356
        2.418884326505000       -0.000006382408791       -0.000021027020998        0.000094814072157        0.000006382408791        0.000021027021161       -0.000094814072157
        2.539828542830250       -0.000035219724282        0.000033369661744        0.000498360914951        0.000035219724282       -0.000033369661751       -0.000498360914951
        2.660772759155500       -0.000067144449439        0.000037602288703        0.000907056308046        0.000067144449439       -0.000037602288892       -0.000907056308046
        2.781716975480750       -0.000101783000444        0.000095982124796        0.001315435298828        0.000101783000444       -0.000095982124758       -0.001315435298828
        2.902661191806000       -0.000138690656224        0.000101434130692        0.001718056426385        0.000138690656224       -0.000101434130502       -0.001718056426385
        3.023605408131250       -0.000177627654935        0.000164550806947        0.002112778547201        0.000177627654935       -0.000164550807011       -0.002112778547201
        3.144549624456500       -0.000218239588843        0.000180963428669        0.002496471136199        0.000218239588843       -0.000180963428844       -0.002496471136199
        3.265493840781750       -0.000259887749859        0.000239649445459        0.002863326190766        0.000259887749859       -0.000239649445377       -0.002863326190766
        3.386438057107000       -0.000301971549300        0.000260185973373        0.003208759015387        0.000301971549300       -0.000260185973228       -0.003208759015387
        3.507382273432250       -0.000344201426536        0.000312081346838        0.003531998134571        0.000344201426536       -0.000312081346928       -0.003531998134571
        3.628326489757500       -0.000386141878004        0.000346724458830        0.003830919069120        0.000386141878004       -0.000346724458940       -0.003830919069120
        3.749270706082750       -0.000426938013620        0.000385539567263        0.004099636300359        0.000426938013620       -0.000385539567180       -0.004099636300359
        3.870214922408000       -0.000465999470792        0.000425488507811        0.004335452129209        0.000465999470792       -0.000425488507735       -0.004335452129209
        3.991159138733250       -0.000503061617451        0.000447697749640        0.004538929212274        0.000503061617451       -0.000447697749721       -0.004538929212274
        4.112103355058500       -0.000537703625597        0.000500744159439        0.004709193453713        0.000537703625597       -0.000500744159489       -0.004709193453713
        4.233047571383750       -0.000568929591630        0.000504897306731        0.004840576372175        0.000568929591630       -0.000504897306655       -0.004840576372175
        4.353991787709000       -0.000596348532317        0.000560279298960        0.004933043279439        0.000596348532317       -0.000560279298928       -0.004933043279439
        4.474936004034250       -0.000619767500555        0.000543693061432        0.004988160496966        0.000619767500555       -0.000543693061522       -0.004988160496966
        4.595880220359500       -0.000638842715543        0.000605313184843        0.005006152525618        0.000638842715543       -0.000605313184864       -0.005006152525618
        4.716824436684750       -0.000652556568208        0.000571886322303        0.004982083251875        0.000652556568208       -0.000571886322188       -0.004982083251875
        4.837768653010000       -0.000660895559440        0.000627958793773        0.004918994752605        0.000660895559440       -0.000627958793767       -0.004918994752605
        4.958712869335250       -0.000663766075849        0.000577013510797        0.004819060591922        0.000663766075849       -0.000577013510946       -0.004819060591922
        5.079657085660500       -0.000660911824529        0.000627485650563        0.004683105645905        0.000660911824529       -0.000627485650543       -0.004683105645905
        5.200601301985750       -0.000651476006815        0.000566955889829        0.004507735876115        0.000651476006815       -0.000566955889627       -0.004507735876115
        5.321545518311000       -0.000635953205231        0.000601028719585        0.004299019899781        0.000635953205231       -0.000601028719650       -0.004299019899781
        5.442489734636251       -0.000614377337176        0.000532066066870        0.004059452112628        0.000614377337176       -0.000532066067102       -0.004059452112628
        5.563433950961501       -0.000586535151999        0.000547454407443        0.003789725249985        0.000586535151999       -0.000547454407311       -0.003789725249985
        5.684378167286750       -0.000551978005884        0.000479407150640        0.003489000004732        0.000551978005884       -0.000479407150360       -0.003489000004732
        5.805322383612000       -0.000511750815555        0.000468948430874        0.003165764367055        0.000511750815555       -0.000468948431087       -0.003165764367055
        5.926266599937250       -0.000466050861074        0.000403431705167        0.002822678592710        0.000466050861074       -0.000403431705443       -0.002822678592710
        6.047210816262500       -0.000414618851239        0.000365274803304        0.002459489391043        0.000414618851239       -0.000365274802996       -0.002459489391043
        6.168155032587750       -0.000357693453515        0.000310268838799        0.002078870656259        0.000357693453515       -0.000310268838514       -0.002078870656259
        6.289099248913001       -0.000296791745047        0.000243349284911        0.001690577987392        0.000296791745047       -0.000243349285297       -0.001690577987392
        6.410043465238251       -0.000232287680732        0.000199127610699        0.001297229735861        0.000232287680732       -0.000199127610940       -0.001297229735861
        6.530987681563500       -0.000163770347825        0.000104157244886        0.000896950059198        0.000163770347825       -0.000104157244425       -0.000896950059198
        6.651931897888750       -0.000092397008631        0.000075503219093        0.000496435929287        0.000092397008631       -0.000075503218894       -0.000496435929287
        6.772876114214000       -0.000019961644035       -0.000041091019239        0.000105245041210        0.000019961644035        0.000041091018754       -0.000105245041210
        6.893820330539250        0.000053067474746       -0.000056495313345       -0.000274628983579       -0.000053067474746        0.000056495313216        0.000274628983579
        7.014764546864500        0.000127320469814       -0.000191162439073       -0.000646921614798       -0.000127320469814        0.000191162439575        0.000646921614798
        7.135708763189751        0.000200653122336       -0.000192087612575       -0.001001261072659       -0.000200653122336        0.000192087612635        0.001001261072659
        7.256652979515001        0.000271285725670       -0.000331231959790       -0.001329748363666       -0.000271285725670        0.000331231959324        0.001329748363666
        7.377597195840250        0.000338863550521       -0.000322541520859       -0.001632104580071       -0.000338863550521        0.000322541520872        0.001632104580071
        7.498541412165500        0.000404230604377       -0.000461740749277       -0.001913463254817       -0.000404230604377        0.000461740749720        0.001913463254817
        7.619485628490750        0.000464442656839       -0.000444863916710       -0.002161184550530       -0.000464442656839        0.000444863916628        0.002161184550530
        7.740429844816000        0.000517900877977       -0.000565442076102       -0.002369592926007       -0.000517900877977        0.000565442075706        0.002369592926007
        7.861374061141250        0.000564916896753       -0.000546211918474       -0.002541998131250       -0.000564916896753        0.000546211918620        0.002541998131250
        7.982318277466501        0.000606252293468       -0.000646467512849       -0.002683500548170       -0.000606252293468        0.000646467513224        0.002683500548170
        8.103262493791750        0.000638631349373       -0.000627340701312       -0.002781302330169       -0.000638631349373        0.000627340701105        0.002781302330169
        8.224206710117000        0.000660840921362       -0.000687085800225       -0.002832270331379       -0.000660840921362        0.000687085799866        0.002832270331379
        8.345150926442249        0.000674359305570       -0.000672460411834       -0.002844836190953       -0.000674359305570        0.000672460412106        0.002844836190953
        8.466095142767500        0.000679553497226       -0.000696319407337       -0.002822307254484       -0.000679553497226        0.000696319407690        0.002822307254484
        8.587039359092751        0.000673423959921       -0.000688141935295       -0.002754031265956       -0.000673423959921        0.000688141934949        0.002754031265956
        8.707983575418000        0.000655254534300       -0.000658634863160       -0.002639206156329       -0.000655254534300        0.000658634862816        0.002639206156329
        8.828927791743251        0.000628081805677       -0.000657570865941       -0.002491978045817       -0.000628081805677        0.000657570866369        0.002491978045817
        8.949872008068500        0.000591481478331       -0.000587678869803       -0.002312139604350       -0.000591481478331        0.000587678870119        0.002312139604350
        9.070816224393750        0.000543247725622       -0.000594005270722       -0.002092639262510       -0.000543247725622        0.000594005270172        0.002092639262510
        9.191760440718999        0.000483301423966       -0.000472382371398       -0.001834911768918       -0.000483301423966        0.000472382371138        0.001834911768918
        9.312704657044250        0.000416193990951       -0.000481994461263       -0.001557647361941       -0.000416193990951        0.000481994461910        0.001557647361941
        9.433648873369501        0.000340404142412       -0.000329313298268       -0.001256107349356       -0.000340404142412        0.000329313298438        0.001256107349356
        9.554593089694750        0.000254806951374       -0.000340457406523       -0.000927166009953       -0.000254806951374        0.000340457405712        0.000927166009953
        9.675537306020001        0.000160160058326       -0.000152956787787       -0.000574769679181       -0.000160160058326        0.000152956787738        0.000574769679181
        9.796481522345250        0.000061885238682       -0.000157615820395       -0.000219072888777       -0.000061885238682        0.000157615821276        0.000219072888777
        9.917425738670500       -0.000042541067378        0.000039804537260        0.000148574497439        0.000042541067378       -0.000039804537353       -0.000148574497439
       10.038369954995749       -0.000153404032874        0.000044530638990        0.000528649088165        0.000153404032874       -0.000044530640014       -0.000528649088165
       10.159314171321000       -0.000268596585327        0.000249171227406        0.000913464449964        0.000268596585327       -0.000249171227169       -0.000913464449964
       10.280258387646251       -0.000382965426421        0.000272258978291        0.001285505318141        0.000382965426421       -0.000272258977282       -0.001285505318141
       10.401202603971500       -0.000499749636040        0.000460494737209        0.001655963558547        0.000499749636040       -0.000460494737604       -0.001655963558547
       10.522146820296751       -0.000618608871043        0.000503874788828        0.002023752713478        0.000618608871043       -0.000503874789880       -0.002023752713478
       10.643091036622000       -0.000735764449569        0.000669418932748        0.002376732685187        0.000735764449569       -0.000669418932229       -0.002376732685187
       10.764035252947250       -0.000847698063144        0.000739197341082        0.002704197321817        0.000847698063144       -0.000739197340150       -0.002704197321817
       10.884979469272501       -0.000957881140784        0.000866087243492        0.003017991682213        0.000957881140784       -0.000866087244165       -0.003017991682213
       11.005923685597750       -0.001065558990074        0.000960697238200        0.003316231835414        0.001065558990074       -0.000960697239054       -0.003316231835414
       11.126867901923001       -0.001165161827676        0.001042346050999        0.003582321068694        0.001165161827676       -0.001042346050227       -0.003582321068694
       11.247812118248250       -0.001255987264965        0.001161616178459        0.003815244952214        0.001255987264965       -0.001161616177785       -0.003815244952214
       11.368756334573501       -0.001341293100606        0.001194836202247        0.004025928281403        0.001341293100606       -0.001194836203164       -0.004025928281403
       11.489700550898750       -0.001419849600129        0.001332170416662        0.004211475084954        0.001419849600129       -0.001332170417182       -0.004211475084954
       11.610644767224001       -0.001484645026150        0.001312034753153        0.004352178032058        0.001484645026150       -0.001312034752148       -0.004352178032058
       11.731588983549251       -0.001538443349167        0.001459638849723        0.004457572933978        0.001538443349167       -0.001459638849385       -0.004457572933978
       11.852533199874500       -0.001584036399849        0.001397730982671        0.004536846189777        0.001584036399849       -0.001397730983785       -0.004536846189777
       11.973477416199751       -0.001619359723384        0.001544721908516        0.004585022521135        0.001619359723384       -0.001544721908679       -0.004585022521135
       12.094421632525000       -0.001636870811533        0.001437415966908        0.004582024173728        0.001636870811533       -0.001437415965727       -0.004582024173728
       12.215365848850251       -0.001642733118833        0.001570169073013        0.004546620930116        0.001642733118833       -0.001570169073032       -0.004546620930116
       12.336310065175500       -0.001639270734138        0.001441784594249        0.004486250272860        0.001639270734138       -0.001441784595460       -0.004486250272860
       12.457254281500751       -0.001623041151290        0.001548352576017        0.004392423183388        0.001623041151290       -0.001548352575800       -0.004392423183388
       12.578198497826001       -0.001587395710933        0.001394077533717        0.004248453998103        0.001587395710933       -0.001394077532490       -0.004248453998103
       12.699142714151250       -0.001541098062815        0.001459808251084        0.004079198643804        0.001541098062815       -0.001459808251523       -0.004079198643804
       12.820086930476501       -0.001486220023639        0.001311348145361        0.003890925824776        0.001486220023639       -0.001311348146524       -0.003890925824776
       12.941031146801750       -0.001417380886948        0.001327745652446        0.003670343885567        0.001417380886948       -0.001327745651756       -0.003670343885567
       13.061975363127001       -0.001330564269909        0.001175758237326        0.003408240288997        0.001330564269909       -0.001175758236208       -0.003408240288997
       13.182919579452250       -0.001235753228085        0.001133378189765        0.003131287239275        0.001235753228085       -0.001133378190697       -0.003131287239275
       13.303863795777501       -0.001135074277299        0.001010410598245        0.002845337442432        0.001135074277299       -0.001010410599231       -0.002845337442432
       13.424808012102751       -0.001020826832297        0.000908003900417        0.002531631117212        0.001020826832297       -0.000908003899209       -0.002531631117212
