#           time (fs)    |     mu_x (e.angstrom)   |     mu_y (e.angstrom)   |     mu_z (e.angstrom)   |
        0.000000000000000       -0.000000000000000       -0.000000000000000        0.000000000000000
        0.002418884326505       -0.000000000579951        0.000000000550934        0.000008645982001
        0.004837768653010       -0.000000002323398        0.000000002205967        0.000017319051796
        0.007256652979515       -0.000000005202333        0.000000004940280        0.000025852288983
        0.009675537306020       -0.000000009233579        0.000000008766890        0.000034413724365
        0.012094421632525       -0.000000014321150        0.000000013598799        0.000042699481469
        0.014513305959030       -0.000000020532501        0.000000019494736        0.000051015631978
        0.016932190285535       -0.000000027669440        0.000000026273023        0.000058926246503
        0.019351074612040       -0.000000035885638        0.000000034071886        0.000066870477673
        0.021769958938545       -0.000000044849708        0.000000042585547        0.000074287373255
        0.024188843265050       -0.000000054834097        0.000000052062641        0.000081742050152
        0.026607727591555       -0.000000065347532        0.000000062047950        0.000088557577043
        0.029026611918060       -0.000000076809678        0.000000072927522        0.000095415876519
        0.031445496244565       -0.000000088547931        0.000000084076335        0.000101534949857
        0.033864380571070       -0.000000101152503        0.000000096040002        0.000107702472749
        0.036283264897575       -0.000000113754077        0.000000108009093        0.000113043982752
        0.038702149224080       -0.000000127130768        0.000000120705265        0.000118440140650
        0.041121033550585       -0.000000140207903        0.000000133126474        0.000122938112693
        0.043539917877090       -0.000000153962158        0.000000146180537        0.000127497267690
        0.045958802203595       -0.000000167112103        0.000000158671470        0.000131101754415
        0.048377686530100       -0.000000180836394        0.000000171696495        0.000134774094416
        0.050796570856605       -0.000000193653011        0.000000183871539        0.000137451786525
        0.053215455183110       -0.000000206938388        0.000000196479247        0.000140203923088
        0.055634339509615       -0.000000219023789        0.000000207960626        0.000141938470134
        0.058053223836120       -0.000000231471443        0.000000219772363        0.000143753750477
        0.060472108162625       -0.000000242447403        0.000000230200969        0.000144545787840
        0.062890992489130       -0.000000253679944        0.000000240858420        0.000145424317366
        0.065309876815635       -0.000000263198802        0.000000249904163        0.000145291200431
        0.067728761142140       -0.000000272871010        0.000000259079555        0.000145249576967
        0.070147645468645       -0.000000280625800        0.000000266450983        0.000144224828435
        0.072566529795150       -0.000000288434566        0.000000273856528        0.000143295594149
        0.074985414121655       -0.000000294168129        0.000000279309479        0.000141428075126
        0.077404298448160       -0.000000299861356        0.000000284705820        0.000139658896761
        0.079823182774665       -0.000000303374210        0.000000288050895        0.000137011716875
        0.082242067101170       -0.000000306758455        0.000000291254364        0.000134464309455
        0.084660951427675       -0.000000307915222        0.000000292363025        0.000131113495559
        0.087079835754180       -0.000000308861878        0.000000293251515        0.000127862308940
        0.089498720080685       -0.000000307596097        0.000000292060659        0.000123895255959
        0.091917604407190       -0.000000306045959        0.000000290577957        0.000120025947536
        0.094336488733695       -0.000000302363162        0.000000287092835        0.000115539678615
        0.096755373060200       -0.000000298329247        0.000000283251298        0.000111147399040
        0.099174257386705       -0.000000292308184        0.000000277546680        0.000106246665301
        0.101593141713210       -0.000000285876718        0.000000271428175        0.000101434187105
        0.104012026039715       -0.000000277668698        0.000000263647719        0.000096229439986
        0.106430910366220       -0.000000268998211        0.000000255402763        0.000091105161658
        0.108849794692725       -0.000000258824523        0.000000245756575        0.000085710432891
        0.111268679019230       -0.000000248143061        0.000000235601686        0.000080386292945
        0.113687563345735       -0.000000236290519        0.000000224362083        0.000074917018767
        0.116106447672240       -0.000000223890986        0.000000212575362        0.000069506355871
        0.118525331998745       -0.000000210705666        0.000000200070928        0.000064077182983
        0.120944216325250       -0.000000196939386        0.000000186985941        0.000058692579060
        0.123363100651755       -0.000000182818659        0.000000173593963        0.000053415190133
        0.125781984978260       -0.000000168087271        0.000000159592049        0.000048166333654
        0.128200869304765       -0.000000153470291        0.000000145729487        0.000043147329873
        0.130619753631270       -0.000000138216126        0.000000131230623        0.000038138936166
        0.133038637957775       -0.000000123572964        0.000000117343788        0.000033477813346
        0.135457522284280       -0.000000108268104        0.000000102796195        0.000028807637856
        0.137876406610785       -0.000000094087737        0.000000089349353        0.000024594891091
        0.140295290937290       -0.000000079221966        0.000000075218064        0.000020351869916
        0.142714175263795       -0.000000065999387        0.000000062681190        0.000016667259636
        0.145133059590300       -0.000000052067307        0.000000049435809        0.000012929809572
        0.147551943916805       -0.000000040290019        0.000000038271769        0.000009840819145
        0.149970828243310       -0.000000027777577        0.000000026373684        0.000006675326818
        0.152389712569815       -0.000000017911772        0.000000017025110        0.000004235838696
        0.154808596896320       -0.000000007282521        0.000000006914445        0.000001695365193
        0.157227481222825        0.000000000240755       -0.000000000209401       -0.000000055421056
        0.159646365549330        0.000000008559381       -0.000000008126812       -0.000001932197212
        0.162065249875835        0.000000013357754       -0.000000012662881       -0.000002970585662
        0.164484134202340        0.000000018987820       -0.000000018028204       -0.000004160168352
        0.166903018528845        0.000000020740503       -0.000000019671921       -0.000004478511286
        0.169321902855350        0.000000023366311       -0.000000022185411       -0.000004973114870
        0.171740787181855        0.000000021826088       -0.000000020702053       -0.000004580070799
        0.174159671508360        0.000000021205955       -0.000000020134241       -0.000004387866404
        0.176578555834865        0.000000016209942       -0.000000015369155       -0.000003308365948
        0.178997440161370        0.000000012186740       -0.000000011570854       -0.000002453440655
        0.181416324487875        0.000000003665647       -0.000000003458252       -0.000000728359595
        0.183835208814380       -0.000000003824181        0.000000003630883        0.000000749611988
        0.186254093140885       -0.000000015838543        0.000000015060800        0.000003064068281
        0.188672977467390       -0.000000026757728        0.000000025405385        0.000005110435710
        0.191091861793895       -0.000000042126921        0.000000040021174        0.000007943627406
        0.193510746120400       -0.000000056332101        0.000000053485093        0.000010489650301
        0.195929630446905       -0.000000074807690        0.000000071050877        0.000013757664025
        0.198348514773410       -0.000000092046307        0.000000087394335        0.000016721658436
        0.200767399099915       -0.000000113268813        0.000000107568803        0.000020328715696
        0.203186283426420       -0.000000133178316        0.000000126447574        0.000023617442821
        0.205605167752925       -0.000000156678582        0.000000148785280        0.000027457533491
        0.208024052079430       -0.000000178788036        0.000000169752230        0.000030967808480
        0.210442936405935       -0.000000203991068        0.000000193707238        0.000034926522993
        0.212861820732440       -0.000000227725224        0.000000216216189        0.000038547017835
        0.215280705058945       -0.000000253956513        0.000000241148083        0.000042503548377
        0.217699589385450       -0.000000278642335        0.000000264560015        0.000046116759482
        0.220118473711955       -0.000000305136633        0.000000289742218        0.000049946037464
        0.222537358038460       -0.000000330012244        0.000000313333759        0.000053430385707
        0.224956242364965       -0.000000355924679        0.000000337964099        0.000057005320450
        0.227375126691470       -0.000000380150624        0.000000360938218        0.000060237349085
        0.229794011017975       -0.000000404570036        0.000000384151584        0.000063431130727
        0.232212895344480       -0.000000427242725        0.000000405650358        0.000066287764771
        0.234631779670985       -0.000000449207022        0.000000426533280        0.000068976193240
        0.237050663997490       -0.000000469374151        0.000000445652532        0.000071337022733
        0.239469548323995       -0.000000487887458        0.000000463259466        0.000073400823943
        0.241888432650500       -0.000000504565180        0.000000479065070        0.000075150372938
        0.244307316977005       -0.000000518616500        0.000000492436112        0.000076477463395
        0.246726201303510       -0.000000530808069        0.000000503981697        0.000077507406495
        0.249145085630015       -0.000000539391146        0.000000512161445        0.000077995068161
        0.251563969956520       -0.000000546106714        0.000000518507188        0.000078206357162
        0.253982854283025       -0.000000548240761        0.000000520564423        0.000077763285663
        0.256401738609530       -0.000000548517994        0.000000520796623        0.000077068150077
        0.258820622936035       -0.000000543268900        0.000000515844441        0.000075616341232
        0.261239507262540       -0.000000536194029        0.000000509095509        0.000073940128359
        0.263658391589045       -0.000000522695670        0.000000496311559        0.000071416570471
        0.266077275915550       -0.000000507424603        0.000000481780062        0.000068699393129
        0.268496160242055       -0.000000484899845        0.000000460426483        0.000065057535433
        0.270915044568560       -0.000000460678929        0.000000437396856        0.000061255698414
        0.273333928895065       -0.000000428459919        0.000000406839546        0.000056466669602
        0.275752813221570       -0.000000394645953        0.000000374701094        0.000051553849360
        0.278171697548075       -0.000000352193285        0.000000334427910        0.000045607403987
        0.280590581874580       -0.000000308272378        0.000000292692713        0.000039575559952
        0.283009466201085       -0.000000255192751        0.000000242330228        0.000032480734834
        0.285428350527590       -0.000000200797637        0.000000190649580        0.000025340734971
        0.287847234854095       -0.000000136859610        0.000000129978051        0.000017126202269
        0.290266119180600       -0.000000071785040        0.000000068157077        0.000008908150039
        0.292685003507105        0.000000003067457       -0.000000002876733       -0.000000377741435
        0.295103887833610        0.000000078851583       -0.000000074866616       -0.000009624486808
        0.297522772160115        0.000000164488311       -0.000000156139050       -0.000019913985563
        0.299941656486620        0.000000250826405       -0.000000238150113       -0.000030121098696
        0.302360540813125        0.000000346922731       -0.000000329352946       -0.000041327638271
        0.304779425139630        0.000000443465824       -0.000000421053861       -0.000052408425317
        0.307198309466135        0.000000549497732       -0.000000521689560       -0.000064427519104
        0.309617193792640        0.000000655698885       -0.000000622561027       -0.000076277816798
        0.312036078119145        0.000000770941266       -0.000000731941132       -0.000088988248445
        0.314454962445650        0.000000886054245       -0.000000841274633       -0.000101487612872
        0.316873846772155        0.000001009582604       -0.000000958521371       -0.000114752905938
        0.319292731098660        0.000001132663961       -0.000001075421142       -0.000127766074752
        0.321711615425165        0.000001263359614       -0.000001199472369       -0.000141436220725
        0.324130499751670        0.000001393274239       -0.000001322860667       -0.000154814828019
        0.326549384078175        0.000001529833025       -0.000001452478135       -0.000168728247648
        0.328968268404680        0.000001665263172       -0.000001581103816       -0.000182312766617
        0.331387152731185        0.000001806207616       -0.000001714884721       -0.000196298475619
        0.333806037057690        0.000001945665368       -0.000001847335068       -0.000209920360391
        0.336224921384195        0.000002089360203       -0.000001983726792       -0.000223800307283
        0.338643805710700        0.000002231203238       -0.000002118442486       -0.000237284301975
        0.341062690037205        0.000002375874105       -0.000002255760347       -0.000250875842862
        0.343481574363710        0.000002518324608       -0.000002391053427       -0.000264042423161
        0.345900458690215        0.000002662079711       -0.000002527501242       -0.000277160896051
        0.348319343016720        0.000002803246186       -0.000002661575808       -0.000289828806345
        0.350738227343225        0.000002944100603       -0.000002795268973       -0.000302290165789
        0.353157111669730        0.000003082002299       -0.000002926244382       -0.000314279013225
        0.355575995996235        0.000003217904621       -0.000003055235166       -0.000325902485034
        0.357994880322740        0.000003350498224       -0.000003181171372       -0.000337035350810
        0.360413764649245        0.000003479359120       -0.000003303476038       -0.000347646066088
        0.362832648975750        0.000003604567328       -0.000003422400726       -0.000357752093903
        0.365251533302255        0.000003724289616       -0.000003536028083       -0.000367183661856
        0.367670417628760        0.000003840031158       -0.000003645965165       -0.000376100583599
        0.370089301955265        0.000003948540918       -0.000003748946102       -0.000384197563410
        0.372508186281770        0.000004052761557       -0.000003847945159       -0.000391774123070
        0.374927070608275        0.000004148039772       -0.000003938362696       -0.000398394356563
        0.377345954934780        0.000004238743801       -0.000004024528877       -0.000404492594793
        0.379764839261285        0.000004318858046       -0.000004100548246       -0.000409509363719
        0.382183723587790        0.000004394139759       -0.000004172072150       -0.000414006727542
        0.384602607914295        0.000004457275386       -0.000004231970406       -0.000417310701944
        0.387021492240800        0.000004515350014       -0.000004287157456       -0.000420101946756
        0.389440376567305        0.000004559840322       -0.000004329352120       -0.000421602894069
        0.391859260893810        0.000004599073909       -0.000004366650927       -0.000422601748226
        0.394278145220315        0.000004623428783       -0.000004389727181       -0.000422229976420
        0.396697029546820        0.000004642366484       -0.000004407756413       -0.000421370542354
        0.399115913873325        0.000004645298998       -0.000004410492357       -0.000419078054549
        0.401534798199830        0.000004642691316       -0.000004408065650       -0.000416315924381
        0.403953682526335        0.000004623141823       -0.000004389455173       -0.000412077266793
        0.406372566852840        0.000004597968301       -0.000004365603627       -0.000407390334851
        0.408791451179345        0.000004555125575       -0.000004324876485       -0.000401203124679
        0.411210335505850        0.000004506615526       -0.000004278868344       -0.000394592083978
        0.413629219832355        0.000004439934555       -0.000004215507052       -0.000386477208820
        0.416048104158860        0.000004367584421       -0.000004146864189       -0.000377965723481
        0.418466988485365        0.000004276800508       -0.000004060617410       -0.000367967208923
        0.420885872811870        0.000004180387518       -0.000003969128295       -0.000357601759499
        0.423304757138375        0.000004065526388       -0.000003860020435       -0.000345786306711
        0.425723641464880        0.000003945118232       -0.000003745749321       -0.000333635710496
        0.428142525791385        0.000003806501927       -0.000003614086131       -0.000320091910741
        0.430561410117890        0.000003662462217       -0.000003477378237       -0.000306246524125
        0.432980294444395        0.000003500710618       -0.000003323748255       -0.000291083762131
        0.435399178770900        0.000003333699988       -0.000003165230814       -0.000275654377032
        0.437818063097405        0.000003149727866       -0.000002990502569       -0.000259001439964
        0.440236947423910        0.000002960700625       -0.000002811081649       -0.000242117891071
        0.442655831750415        0.000002755710221       -0.000002616396612       -0.000224121304395
        0.445074716076920        0.000002545906551       -0.000002417249708       -0.000205930808419
        0.447493600403425        0.000002321375724       -0.000002204011044       -0.000186752924155
        0.449912484729930        0.000002092309493       -0.000001986575511       -0.000167418176431
        0.452331369056435        0.000001849975592       -0.000001756432761       -0.000147235043094
        0.454750253382940        0.000001603417909       -0.000001522390197       -0.000126932100558
        0.457169137709445        0.000001345257564       -0.000001277220096       -0.000105931147392
        0.459588022035950        0.000001083216306       -0.000001028476904       -0.000084847130259
        0.462006906362455        0.000000811421424       -0.000000770360586       -0.000063224701199
        0.464425790688960        0.000000536117003       -0.000000509024965       -0.000041555348353
        0.466844675015465        0.000000253067311       -0.000000240221896       -0.000019514123380
        0.469263559341970       -0.000000033094961        0.000000031422395        0.000002538761283
        0.471682443668475       -0.000000324862410        0.000000308503373        0.000024792418107
