#             time (fs)      |   total net charge (e)  |   charge (atom_1) (e)   |   charge (atom_2) (e)   |        ...        |   charge (atom_N) (e)   |
          0.000000000000000       -0.000000000000000       -0.000000000000000        0.000000000000000
          0.120944216325250       -0.000000000002158       -0.000079353744140        0.000079353741981
          0.241888432650500       -0.000000000004173       -0.000101651196371        0.000101651192197
          0.362832648975750       -0.000000000005969        0.000484105334469       -0.000484105340438
          0.483776865301000       -0.000000000007364       -0.000183442572393        0.000183442565029
          0.604721081626250       -0.000000000008371       -0.000563522727523        0.000563522719153
          0.725665297951500       -0.000000000008947        0.000181210321817       -0.000181210330763
          0.846609514276750       -0.000000000009015        0.000959565005188       -0.000959565014203
          0.967553730602000       -0.000000000008611       -0.000677733282170        0.000677733273559
          1.088497946927250       -0.000000000007599       -0.000869415408390        0.000869415400792
          1.209442163252500       -0.000000000006256        0.000740439047990       -0.000740439054246
          1.330386379577750       -0.000000000004154        0.001186954401655       -0.001186954405809
          1.451330595903000       -0.000000000002321       -0.001391378782277        0.001391378779957
          1.572274812228250        0.000000000000469       -0.000881743991334        0.000881743991803
          1.693219028553500        0.000000000002863        0.001470729494605       -0.001470729491743
          1.814163244878750        0.000000000006301        0.001061427423430       -0.001061427417129
          1.935107461204000        0.000000000008236       -0.002189359243800        0.002189359252036
          2.056051677529250        0.000000000011405       -0.000526118250090        0.000526118261495
          2.176995893854500        0.000000000013530        0.002223861898606       -0.002223861885077
          2.297940110179750        0.000000000016390        0.000533391487197       -0.000533391470807
          2.418884326505000        0.000000000017498       -0.002908496150656        0.002908496168154
          2.539828542830250        0.000000000019092        0.000216025554105       -0.000216025535013
          2.660772759155500        0.000000000020358        0.002827146084524       -0.002827146064166
          2.781716975480750        0.000000000020676       -0.000379836807524        0.000379836828200
          2.902661191806000        0.000000000021183       -0.003376515803649        0.003376515824832
          3.023605408131250        0.000000000019996        0.001295048658072       -0.001295048638076
          3.144549624456500        0.000000000020683        0.003109520477213       -0.003109520456530
          3.265493840781750        0.000000000018010       -0.001589441027289        0.001589441045299
          3.386438057107000        0.000000000018642       -0.003436827214423        0.003436827233065
          3.507382273432250        0.000000000015482        0.002589222793512       -0.002589222778030
          3.628326489757500        0.000000000015957        0.002932071934421       -0.002932071918464
          3.749270706082750        0.000000000012186       -0.002939882802598        0.002939882814784
          3.870214922408000        0.000000000013121       -0.002978066336583        0.002978066349704
          3.991159138733250        0.000000000010533        0.003914987122998       -0.003914987112465
          4.112103355058500        0.000000000010917        0.002217395130862       -0.002217395119945
          4.233047571383750        0.000000000009059       -0.004225766569483        0.004225766578542
          4.353991787709000        0.000000000010053       -0.001962429776826        0.001962429786879
          4.474936004034250        0.000000000010116        0.005052943075310       -0.005052943065194
          4.595880220359500        0.000000000011076        0.000970920423823       -0.000970920412747
          4.716824436684750        0.000000000012492       -0.005221288909354        0.005221288921846
          4.837768653010000        0.000000000014093       -0.000443635429649        0.000443635443742
          4.958712869335250        0.000000000016041        0.005785238761630       -0.005785238745589
          5.079657085660500        0.000000000019476       -0.000711951487390        0.000711951506866
          5.200601301985750        0.000000000022136       -0.005718156054396        0.005718156076532
          5.321545518311000        0.000000000026047        0.001433243931290       -0.001433243905242
          5.442489734636251        0.000000000026444        0.005935069118073       -0.005935069091629
          5.563433950961501        0.000000000034316       -0.002655791989524        0.002655792023840
          5.684378167286750        0.000000000034283       -0.005563319420802        0.005563319455085
          5.805322383612000        0.000000000041551        0.003451707065109       -0.003451707023558
          5.926266599937250        0.000000000037516        0.005398008046646       -0.005398008009131
          6.047210816262500        0.000000000049239       -0.004630168828748        0.004630168877987
          6.168155032587750        0.000000000044515       -0.004686594182124        0.004686594226639
          6.289099248913001        0.000000000053217        0.005357610981232       -0.005357610928016
          6.410043465238251        0.000000000045765        0.004158330608807       -0.004158330563042
          6.530987681563500        0.000000000057065       -0.006383202030788        0.006383202087853
          6.651931897888750        0.000000000049991       -0.003111895176150        0.003111895226142
          6.772876114214000        0.000000000055691        0.006896728290052       -0.006896728234361
          6.893820330539250        0.000000000049439        0.002289127076517       -0.002289127027078
          7.014764546864500        0.000000000055077       -0.007675033567247        0.007675033622324
          7.135708763189751        0.000000000050380       -0.000952517075696        0.000952517126076
          7.256652979515001        0.000000000050119        0.007847147228422       -0.007847147178303
          7.377597195840250        0.000000000048995       -0.000059889983199        0.000059890032195
          7.498541412165500        0.000000000047760       -0.008304535301889        0.008304535349649
          7.619485628490750        0.000000000047813        0.001603984100280       -0.001603984052467
          7.740429844816000        0.000000000044018        0.008042044168972       -0.008042044124954
          7.861374061141250        0.000000000047061       -0.002680177277059        0.002680177324120
          7.982318277466501        0.000000000044107       -0.008127713223157        0.008127713267264
          8.103262493791750        0.000000000046453        0.004315175768305       -0.004315175721852
          8.224206710117000        0.000000000045918        0.007382982031259       -0.007382981985341
          8.345150926442249        0.000000000047919       -0.005321654615184        0.005321654663103
          8.466095142767500        0.000000000050908       -0.007070958158758        0.007070958209667
          8.587039359092751        0.000000000051243        0.006904017717254       -0.006904017666010
          8.707983575418000        0.000000000058651        0.005847217551337       -0.005847217492686
          8.828927791743251        0.000000000055862       -0.007707695974263        0.007707696030126
          8.949872008068500        0.000000000067407       -0.005142885190424        0.005142885257831
          9.070816224393750        0.000000000065440        0.009079519676243       -0.009079519610803
          9.191760440718999        0.000000000077095        0.003493906814397       -0.003493906737302
          9.312704657044250        0.000000000072502       -0.009551718822837        0.009551718895339
          9.433648873369501        0.000000000086159       -0.002445129561566        0.002445129647726
          9.554593089694750        0.000000000087798        0.010559261438177       -0.010559261350379
          9.675537306020001        0.000000000092635        0.000471856114765       -0.000471856022130
          9.796481522345250        0.000000000094571       -0.010581679455610        0.010581679550181
          9.917425738670500        0.000000000099476        0.000821319963943       -0.000821319864466
         10.038369954995749        0.000000000111674        0.011096701628727       -0.011096701517052
         10.159314171321000        0.000000000100510       -0.002974653002073        0.002974653102583
         10.280258387646251        0.000000000114605       -0.010575325394890        0.010575325509496
         10.401202603971500        0.000000000105560        0.004359547112579       -0.004359547007019
         10.522146820296751        0.000000000128109        0.010515483305983       -0.010515483177874
         10.643091036622000        0.000000000103273       -0.006511074293027        0.006511074396300
         10.764035252947250        0.000000000125479       -0.009402382820986        0.009402382946465
         10.884979469272501        0.000000000108745        0.007795533274178       -0.007795533165433
         11.005923685597750        0.000000000132078        0.008748044659520       -0.008748044527442
         11.126867901923001        0.000000000107261       -0.009738067731469        0.009738067838730
         11.247812118248250        0.000000000126256       -0.007063872347464        0.007063872473720
         11.368756334573501        0.000000000114122        0.010716265576523       -0.010716265462401
         11.489700550898750        0.000000000127460        0.005868830111124       -0.005868829983664
         11.610644767224001        0.000000000115914       -0.012240230586997        0.012240230702911
         11.731588983549251        0.000000000124122       -0.003715536084895        0.003715536209018
         11.852533199874500        0.000000000122431        0.012725474410520       -0.012725474288088
         11.973477416199751        0.000000000125481        0.002108421965846       -0.002108421840365
         12.094421632525000        0.000000000126937       -0.013651191200684        0.013651191327621
         12.215365848850251        0.000000000129240        0.000336057809212       -0.000336057679972
         12.336310065175500        0.000000000130451        0.013507322150128       -0.013507322019677
         12.457254281500751        0.000000000136052       -0.002162309864054        0.002162310000106
         12.578198497826001        0.000000000135941       -0.013719040692589        0.013719040828530
         12.699142714151250        0.000000000145743        0.004668650578527       -0.004668650432784
         12.820086930476501        0.000000000135933        0.012882370214868       -0.012882370078935
         12.941031146801750        0.000000000158558       -0.006479485163386        0.006479485321944
         13.061975363127001        0.000000000141874       -0.012352975094596        0.012352975236470
         13.182919579452250        0.000000000166794        0.008803759628815       -0.008803759462022
         13.303863795777501        0.000000000140883        0.010840278030047       -0.010840277889164
         13.424808012102751        0.000000000180862       -0.010354237850370        0.010354238031232
         13.545752228428000        0.000000000147750       -0.009637943865182        0.009637944012932
         13.666696444753251        0.000000000179293        0.012275032987092       -0.012275032807799
         13.787640661078500        0.000000000148962        0.007540890267959       -0.007540890118997
         13.908584877403751        0.000000000188832       -0.013342750339124        0.013342750527956
         14.029529093729000        0.000000000155927       -0.005816266923557        0.005816267079485
         14.150473310054251        0.000000000175197        0.014688208028280       -0.014688207853082
         14.271417526379501        0.000000000159867        0.003286611018594       -0.003286610858727
         14.392361742704750        0.000000000178733       -0.015100605094064        0.015100605272797
         14.513305959030001        0.000000000163925       -0.001246623241660        0.001246623405585
         14.634250175355250        0.000000000159644        0.015760822554174       -0.015760822394530
         14.755194391680501        0.000000000167829       -0.001521759677672        0.001521759845501
         14.876138608005750        0.000000000161123       -0.015412722083556        0.015412722244679
         14.997082824331001        0.000000000166464        0.003644026181248       -0.003644026014784
         15.118027040656251        0.000000000147770        0.015339588988726       -0.015339588840956
         15.238971256981500        0.000000000167340       -0.006431420247055        0.006431420414395
         15.359915473306751        0.000000000152349       -0.014200859019887        0.014200859172236
         15.480859689632000        0.000000000162592        0.008402318582183       -0.008402318419590
         15.601803905957251        0.000000000152260        0.013402349453189       -0.013402349300929
         15.722748122282500        0.000000000160868       -0.010977040050427        0.010977040211295
         15.843692338607751        0.000000000160929       -0.011517640033334        0.011517640194263
         15.964636554933001        0.000000000160138        0.012578706980668       -0.012578706820530
         16.085580771258250        0.000000000172454        0.010054781986285       -0.010054781813831
         16.206524987583499        0.000000000159828       -0.014711847746664        0.014711847906492
         16.327469203908752        0.000000000181089       -0.007537663717528        0.007537663898617
         16.448413420234001        0.000000000171201        0.015750065852123       -0.015750065680922
         16.569357636559250        0.000000000195240        0.005528200415255       -0.005528200220014
         16.690301852884499        0.000000000175830       -0.017234506133220        0.017234506309050
         16.811246069209751        0.000000000199277       -0.002552606870053        0.002552607069330
         16.932190285535000        0.000000000200978        0.017544779193079       -0.017544778992101
         17.053134501860249        0.000000000207290        0.000177499679480       -0.000177499472190
         17.174078718185502        0.000000000209140       -0.018218369962212        0.018218370171352
         17.295022934510751        0.000000000207396        0.003031040960410       -0.003031040753014
         17.415967150836000        0.000000000240045        0.017678690851919       -0.017678690611874
         17.536911367161249        0.000000000207296       -0.005527569462822        0.005527569670117
         17.657855583486501        0.000000000245605       -0.017448456387541        0.017448456633147
         17.778799799811750        0.000000000209815        0.008701939303154       -0.008701939093339
         17.899744016136999        0.000000000269150        0.016001872558585       -0.016001872289435
         18.020688232462252        0.000000000206249       -0.011027045746220        0.011027045952470
         18.141632448787501        0.000000000266797       -0.014865202283024        0.014865202549821
         18.262576665112750        0.000000000217090        0.013874990713545       -0.013874990496455
         18.383520881437999        0.000000000274710        0.012546370622767       -0.012546370348056
         18.504465097763251        0.000000000215401       -0.015719103372235        0.015719103587636
         18.625409314088500        0.000000000265891       -0.010604462099262        0.010604462365153
         18.746353530413749        0.000000000232927        0.017951281193478       -0.017951280960551
         18.867297746739002        0.000000000261787        0.007558204802613       -0.007558204540826
         18.988241963064251        0.000000000234130       -0.019033045822548        0.019033046056678
         19.109186179389500        0.000000000254558       -0.005016120383976        0.005016120638534
         19.230130395714749        0.000000000248678        0.020402368076977       -0.020402367828298
         19.351074612040001        0.000000000251150        0.001495836071636       -0.001495835820486
         19.472018828365250        0.000000000250519       -0.020516309720890        0.020516309971409
         19.592963044690499        0.000000000252853        0.001355014972040       -0.001355014719187
         19.713907261015752        0.000000000252220        0.020860907025474       -0.020860906773254
         19.834851477341001        0.000000000260956       -0.005015123518270        0.005015123779226
         19.955795693666250        0.000000000254212       -0.019914315102546        0.019914315356757
         20.076739909991499        0.000000000269990        0.007831596289379       -0.007831596019389
         20.197684126316751        0.000000000242212        0.019191473311356       -0.019191473069144
         20.318628342642000        0.000000000289247       -0.011266096345487        0.011266096634734
         20.439572558967249        0.000000000247881       -0.017219644234414        0.017219644482296
         20.560516775292502        0.000000000294303        0.013698878781511       -0.013698878487208
         20.681460991617751        0.000000000231621        0.015518600605080       -0.015518600373459
         20.802405207943000        0.000000000314301       -0.016568304693356        0.016568305007656
         20.923349424268253        0.000000000244519       -0.012675543019345        0.012675543263864
         21.044293640593501        0.000000000303248        0.018308521237105       -0.018308520933857
         21.165237856918750        0.000000000235240        0.010203926664441       -0.010203926429201
         21.286182073243999        0.000000000313689       -0.020346924654837        0.020346924968526
         21.407126289569252        0.000000000252820       -0.006734460525992        0.006734460778812
         21.528070505894501        0.000000000284953        0.021163677672638       -0.021163677387685
         21.649014722219750        0.000000000253584        0.003783236375740       -0.003783236122156
         21.769958938545003        0.000000000284899       -0.022204846335348        0.022204846620247
         21.890903154870252        0.000000000266529        0.000012575365940       -0.000012575099412
         22.011847371195501        0.000000000250707        0.021967340850492       -0.021967340599785
         22.132791587520749        0.000000000270674       -0.003113446826323        0.003113447096997
         22.253735803846002        0.000000000248297       -0.021948291317373        0.021948291565671
         22.374680020171251        0.000000000270273        0.006913193586241       -0.006913193315968
         22.495624236496500        0.000000000225862        0.020631990462906       -0.020631990237044
         22.616568452821753        0.000000000269421       -0.009835234185898        0.009835234455319
         22.737512669147002        0.000000000229486       -0.019581510569659        0.019581510799145
         22.858456885472251        0.000000000257167        0.013319301895792       -0.013319301638625
         22.979401101797500        0.000000000227334        0.017262177933847       -0.017262177706513
         23.100345318122752        0.000000000250189       -0.015763514404636        0.015763514654825
