#           time (fs)       | force (atom_1) (H/b)   |  force (atom_2) (H/b)  |           ...          |  force (atom_N) (H/b)  |
        0.000000000000000       -0.000000000000000       -0.000000000000000       -0.001977038000788       -0.000000000000000       -0.000000000000000        0.001977038000788
        0.120944216325250        0.000000996174384        0.000004708655416       -0.000511236760980       -0.000000996174384       -0.000004708655069        0.000511236760980
        0.241888432650500       -0.000003673666385       -0.000000643514812        0.000945236457624        0.000003673666385        0.000000643514904       -0.000945236457624
        0.362832648975750       -0.000013806011740        0.000010148010502        0.002374627176977        0.000013806011740       -0.000010148010790       -0.002374627176977
        0.483776865301000       -0.000029111793624       -0.000010534309090        0.003765520646196        0.000029111793624        0.000010534309101       -0.003765520646196
        0.604721081626250       -0.000049176760667       -0.000002947973078        0.005102199937093        0.000049176760667        0.000002947972554       -0.005102199937093
        0.725665297951500       -0.000073556768682       -0.000022871027038        0.006376300707954        0.000073556768682        0.000022871026328       -0.006376300707954
        0.846609514276750       -0.000101680651791       -0.000020044340423        0.007574265995938        0.000101680651791        0.000020044342237       -0.007574265995938
        0.967553730602000       -0.000132978335822       -0.000046432215993        0.008688845322175        0.000132978335822        0.000046432218111       -0.008688845322175
        1.088497946927250       -0.000166775486341       -0.000064279888563        0.009709458996862        0.000166775486341        0.000064279885709       -0.009709458996862
        1.209442163252500       -0.000202467704506       -0.000050299351999        0.010632957995624        0.000202467704506        0.000050299347858       -0.010632957995624
        1.330386379577750       -0.000239308175179       -0.000092081045007        0.011450143108971        0.000239308175179        0.000092081048422       -0.011450143108971
        1.451330595903000       -0.000276612201604       -0.000091187869249        0.012157233988666        0.000276612201604        0.000091187875622       -0.012157233988666
        1.572274812228250       -0.000313622707462       -0.000151594075100        0.012748375889380        0.000313622707462        0.000151594072040       -0.012748375889380
        1.693219028553500       -0.000349719615995       -0.000071138309984        0.013224306777528        0.000349719615995        0.000071138301632       -0.013224306777528
        1.814163244878750       -0.000384136504319       -0.000181252375850        0.013580222662291        0.000384136504319        0.000181252377818       -0.013580222662291
        1.935107461204000       -0.000416146140369       -0.000132566631591        0.013813664328308        0.000416146140369        0.000132566641216       -0.013813664328308
        2.056051677529250       -0.000445018340843       -0.000221022182681        0.013922558667184        0.000445018340843        0.000221022182348       -0.013922558667184
        2.176995893854500       -0.000470174992014       -0.000091856426083        0.013909735581974        0.000470174992014        0.000091856416254       -0.013909735581974
        2.297940110179750       -0.000490942610649       -0.000244439018685        0.013774756578952        0.000490942610649        0.000244439017312       -0.013774756578952
        2.418884326505000       -0.000506576697231       -0.000162141700995        0.013515399746926        0.000506576697231        0.000162141709961       -0.013515399746926
        2.539828542830250       -0.000516462604719       -0.000232882309596        0.013133218151300        0.000516462604719        0.000232882312306       -0.013133218151300
        2.660772759155500       -0.000520122359077       -0.000117530802194        0.012632890489017        0.000520122359077        0.000117530795068       -0.012632890489017
        2.781716975480750       -0.000517094829390       -0.000236226565006        0.012018789869456        0.000517094829390        0.000236226561757       -0.012018789869456
        2.902661191806000       -0.000506668655747       -0.000171943693716        0.011289115990676        0.000506668655747        0.000171943698542       -0.011289115990676
        3.023605408131250       -0.000488415925631       -0.000165651202775        0.010448558696694        0.000488415925631        0.000165651205787       -0.010448558696694
        3.144549624456500       -0.000462078942996       -0.000130553426705        0.009504741267473        0.000462078942996        0.000130553424226       -0.009504741267473
        3.265493840781750       -0.000427559220156       -0.000135042315057        0.008467465493087        0.000427559220156        0.000135042313265       -0.008467465493087
        3.386438057107000       -0.000384350642878       -0.000145654837905        0.007337497869378        0.000384350642878        0.000145654838600       -0.007337497869378
        3.507382273432250       -0.000332338049334       -0.000018788290123        0.006122852622679        0.000332338049334        0.000018788290479       -0.006122852622679
        3.628326489757500       -0.000271734036214       -0.000093290750779        0.004836440720181        0.000271734036214        0.000093290751159       -0.004836440720181
        3.749270706082750       -0.000202953576081        0.000044017834406        0.003493091758942        0.000202953576081       -0.000044017833069       -0.003493091758942
        3.870214922408000       -0.000125946413351       -0.000054214051057        0.002098099878622        0.000125946413351        0.000054214050516       -0.002098099878622
        3.991159138733250       -0.000041071428224        0.000186633483591        0.000662793967177        0.000041071428224       -0.000186633485859       -0.000662793967177
        4.112103355058500        0.000050721713275        0.000028890834046       -0.000793557630781       -0.000050721713275       -0.000028890833790        0.000793557630781
        4.233047571383750        0.000148415773307        0.000259795561590       -0.002252900055866       -0.000148415773307       -0.000259795559068        0.002252900055866
        4.353991787709000        0.000251526062913        0.000128908633698       -0.003707103843164       -0.000251526062913       -0.000128908633556        0.003707103843164
        4.474936004034250        0.000359082118805        0.000410593807225       -0.005142013950200       -0.000359082118805       -0.000410593809003        0.005142013950200
        4.595880220359500        0.000469296304083        0.000243625491419       -0.006533696873906       -0.000469296304083       -0.000243625491619        0.006533696873906
        4.716824436684750        0.000580571480025        0.000466045675134       -0.007863447901334       -0.000580571480025       -0.000466045674955        0.007863447901334
        4.837768653010000        0.000691643648739        0.000399898152927       -0.009119019094314       -0.000691643648739       -0.000399898153598        0.009119019094314
        4.958712869335250        0.000800796066741        0.000602960963421       -0.010283717590359       -0.000800796066741       -0.000602960962011        0.010283717590359
        5.079657085660500        0.000905817319194        0.000518478743004       -0.011336463507953       -0.000905817319194       -0.000518478741069        0.011336463507953
        5.200601301985750        0.001004943837426        0.000625292690883       -0.012263854717398       -0.001004943837426       -0.000625292693953        0.012263854717398
        5.321545518311000        0.001096397967921        0.000701692772383       -0.013053745042104       -0.001096397967921       -0.000701692776340        0.013053745042104
        5.442489734636251        0.001178129670182        0.000717015781426       -0.013692093285889       -0.001178129670182       -0.000717015777815        0.013692093285889
        5.563433950961501        0.001248451726092        0.000785565532900       -0.014170388725998       -0.001248451726092       -0.000785565527384        0.014170388725998
        5.684378167286750        0.001305879958753        0.000710661193433       -0.014483236261956       -0.001305879958753       -0.000710661196870        0.014483236261956
        5.805322383612000        0.001348521126215        0.000932679685038       -0.014621353767070       -0.001348521126215       -0.000932679691623        0.014621353767070
        5.926266599937250        0.001374938141984        0.000732483575806       -0.014581152517029       -0.001374938141984       -0.000732483573431        0.014581152517029
        6.047210816262500        0.001384973605928        0.000957498728816       -0.014372650124045       -0.001384973605928       -0.000957498722298        0.014372650124045
        6.168155032587750        0.001377501713934        0.000703362678684       -0.013995178685259       -0.001377501713934       -0.000703362679696        0.013995178685259
        6.289099248913001        0.001351310939560        0.000994501675780       -0.013447244158653       -0.001351310939560       -0.000994501681301        0.013447244158653
        6.410043465238251        0.001306535615283        0.000663610372565       -0.012740548241679       -0.001306535615283       -0.000663610372643        0.012740548241679
        6.530987681563500        0.001244579816551        0.000948179547543       -0.011897944892093       -0.001244579816551       -0.000948179543791        0.011897944892093
        6.651931897888750        0.001164799504025        0.000604446056876       -0.010921249699880       -0.001164799504025       -0.000604446056392        0.010921249699880
        6.772876114214000        0.001067418023201        0.000841534190713       -0.009820040020112       -0.001067418023201       -0.000841534192624        0.009820040020112
        6.893820330539250        0.000954198502726        0.000537298047347       -0.008617006454615       -0.000954198502726       -0.000537298047261        0.008617006454615
        7.014764546864500        0.000827250816026        0.000715325991685       -0.007336194516862       -0.000827250816026       -0.000715325991189        0.007336194516862
        7.135708763189751        0.000686902065232        0.000441386415938       -0.005984347095486       -0.000686902065232       -0.000441386416767        0.005984347095486
        7.256652979515001        0.000534579344788        0.000493547592150       -0.004577095910540       -0.000534579344788       -0.000493547591664        0.004577095910540
        7.377597195840250        0.000372935133364        0.000372165063813       -0.003139276692127       -0.000372935133364       -0.000372165061474        0.003139276692127
        7.498541412165500        0.000203947993028        0.000298199724169       -0.001688463047106       -0.000203947993028       -0.000298199724431        0.001688463047106
        7.619485628490750        0.000029123946077        0.000243188637949       -0.000237218674647       -0.000029123946077       -0.000243188639965        0.000237218674647
        7.740429844816000       -0.000150141633165        0.000029437013290        0.001203585226422        0.000150141633165       -0.000029437013124       -0.001203585226422
        7.861374061141250       -0.000330975404291        0.000171761818485        0.002612085242948        0.000330975404291       -0.000171761816394       -0.002612085242948
        7.982318277466501       -0.000512247614600       -0.000192912229958        0.003981285274838        0.000512247614600        0.000192912230595       -0.003981285274838
        8.103262493791750       -0.000691136321035        0.000015431078492        0.005291622986019        0.000691136321035       -0.000015431077604       -0.005291622986019
        8.224206710117000       -0.000866715855259       -0.000431508725190        0.006538952547281        0.000866715855259        0.000431508724550       -0.006538952547281
        8.345150926442249       -0.001036216506204       -0.000075748706548        0.007705610047199        0.001036216506204        0.000075748703614       -0.007705610047199
        8.466095142767500       -0.001199564531164       -0.000619913495995        0.008794647178274        0.001199564531164        0.000619913496257       -0.008794647178274
        8.587039359092751       -0.001353222554576       -0.000249341323734        0.009783854232613        0.001353222554576        0.000249341330879       -0.009783854232613
        8.707983575418000       -0.001496947889478       -0.000767336211609        0.010675679892294        0.001496947889478        0.000767336212595       -0.010675679892294
        8.828927791743251       -0.001628395864355       -0.000375696512898        0.011457602342400        0.001628395864355        0.000375696503735       -0.011457602342400
        8.949872008068500       -0.001748367552477       -0.000865968116687        0.012139557998144        0.001748367552477        0.000865968113644       -0.012139557998144
        9.070816224393750       -0.001853352232447       -0.000542923589287        0.012701376733563        0.001853352232447        0.000542923600710       -0.012701376733563
        9.191760440718999       -0.001943150548418       -0.000902282785094        0.013146291220474        0.001943150548418        0.000902282790610       -0.013146291220474
        9.312704657044250       -0.002016257648097       -0.000693645154746        0.013468621997155        0.002016257648097        0.000693645143617       -0.013468621997155
        9.433648873369501       -0.002073784393978       -0.000880440944246        0.013680207998337        0.002073784393978        0.000880440936197       -0.013680207998337
        9.554593089694750       -0.002113071515390       -0.000816659462785        0.013767728636770        0.002113071515390        0.000816659472745       -0.013767728636770
        9.675537306020001       -0.002133070300593       -0.000829857133148        0.013728873475441        0.002133070300593        0.000829857143297       -0.013728873475441
        9.796481522345250       -0.002133514209350       -0.000938249252898        0.013566421393698        0.002133514209350        0.000938249245253       -0.013566421393698
        9.917425738670500       -0.002115323157774       -0.000694564392647        0.013290486253906        0.002115323157774        0.000694564381616       -0.013290486253906
       10.038369954995749       -0.002077573986653       -0.000974843537812        0.012899281982411        0.002077573986653        0.000974843542555       -0.012899281982411
       10.159314171321000       -0.002017808725536       -0.000598997141443        0.012381714556308        0.002017808725536        0.000598997151964       -0.012381714556308
       10.280258387646251       -0.001937302392610       -0.000988330757677        0.011749878879847        0.001937302392610        0.000988330755172       -0.011749878879847
       10.401202603971500       -0.001836622468914       -0.000391268838184        0.011011114135040        0.001836622468914        0.000391268829783       -0.011011114135040
       10.522146820296751       -0.001717100139065       -0.000902679274459        0.010176996264916        0.001717100139065        0.000902679275050       -0.010176996264916
       10.643091036622000       -0.001574895097391       -0.000280246901486        0.009228321373249        0.001574895097391        0.000280246906361       -0.009228321373249
       10.764035252947250       -0.001412822796141       -0.000748835902416        0.008185360469068        0.001412822796141        0.000748835902678       -0.008185360469068
       10.884979469272501       -0.001231852134287       -0.000046520505353        0.007056956086889        0.001231852134287        0.000046520504428       -0.007056956086889
       11.005923685597750       -0.001035492173313       -0.000526102294058        0.005865999780520        0.001035492173313        0.000526102293905       -0.005865999780520
       11.126867901923001       -0.000819414140947        0.000072187359549        0.004590510482569        0.000819414140947       -0.000072187362366       -0.004590510482569
       11.247812118248250       -0.000587327263642       -0.000200904873884        0.003254051638800        0.000587327263642        0.000200904873825       -0.003254051638800
       11.368756334573501       -0.000342228842164        0.000307965889631        0.001875300656606        0.000342228842164       -0.000307965884104       -0.001875300656606
       11.489700550898750       -0.000088559366243        0.000131801697702        0.000479978336295        0.000088559366243       -0.000131801696414       -0.000479978336295
       11.610644767224001        0.000176787422229        0.000442117332669       -0.000947743939269       -0.000176787422229       -0.000442117338848        0.000947743939269
       11.731588983549251        0.000450569450468        0.000572215992688       -0.002389333114799       -0.000450569450468       -0.000572215994449        0.002389333114799
       11.852533199874500        0.000726221835376        0.000677417783240       -0.003809609783842       -0.000726221835376       -0.000677417777261        0.003809609783842
       11.973477416199751        0.001000696100255        0.000940569887593       -0.005193150114832       -0.001000696100255       -0.000940569884978        0.005193150114832
       12.094421632525000        0.001274082386766        0.000840279650464       -0.006541319397223       -0.001274082386766       -0.000840279654314        0.006541319397223
       12.215365848850251        0.001544331723370        0.001395220426184       -0.007844585221636       -0.001544331723370       -0.001395220429165        0.007844585221636
       12.336310065175500        0.001800526205297        0.001070849104427       -0.009049272705126       -0.001800526205297       -0.001070849102135        0.009049272705126
       12.457254281500751        0.002043274686710        0.001701450364167       -0.010161322595197       -0.002043274686710       -0.001701450361612        0.010161322595197
       12.578198497826001        0.002268388922057        0.001261480309175       -0.011162873368995       -0.002268388922057       -0.001261480309800        0.011162873368995
       12.699142714151250        0.002475842559466        0.002042900938390       -0.012057124206901       -0.002475842559466       -0.002042900941012        0.012057124206901
       12.820086930476501        0.002653790324110        0.001464679102373       -0.012790231827688       -0.002653790324110       -0.001464679102382        0.012790231827688
       12.941031146801750        0.002806760296279        0.002205129847125       -0.013388713511103       -0.002806760296279       -0.002205129845676        0.013388713511103
       13.061975363127001        0.002926354306956        0.001646942874532       -0.013817026226923       -0.002926354306956       -0.001646942874427        0.013817026226923
       13.182919579452250        0.003015624506822        0.002320321087118       -0.014094620615285       -0.003015624506822       -0.002320321088186        0.014094620615285
       13.303863795777501        0.003067074862523        0.001794262949723       -0.014191396212508       -0.003067074862523       -0.001794262949974        0.014191396212508
       13.424808012102751        0.003085097394749        0.002296392710784       -0.014132931773975       -0.003085097394749       -0.002296392710299        0.014132931773975
