#           time (fs)    |     mu_x (e.angstrom)   |     mu_y (e.angstrom)   |     mu_z (e.angstrom)   |
        0.000000000000000       -0.000000000000000       -0.000000000000000        0.000000000000000
        0.002418884326505       -0.000000001448737       -0.000000000714464        0.000037075491682
        0.004837768653010       -0.000000005794614       -0.000000002857571        0.000074151278046
        0.007256652979515       -0.000000012967517       -0.000000006394926        0.000110632356326
        0.009675537306020       -0.000000022989929       -0.000000011337314        0.000147112277795
        0.012094421632525       -0.000000035630093       -0.000000017570867        0.000182406842434
        0.014513305959030       -0.000000051025353       -0.000000025162771        0.000217697375614
        0.016932190285535       -0.000000068695329       -0.000000033876793        0.000251229523560
        0.019351074612040       -0.000000088980189       -0.000000043879896        0.000284753400404
        0.021769958938545       -0.000000111071684       -0.000000054774399        0.000315972740371
        0.024188843265050       -0.000000135593795       -0.000000066866986        0.000347178292170
        0.026607727591555       -0.000000161341561       -0.000000079564579        0.000375568856842
        0.029026611918060       -0.000000189294092       -0.000000093348747        0.000403938954439
        0.031445496244565       -0.000000217793706       -0.000000107403398        0.000429027567067
        0.033864380571070       -0.000000248233827       -0.000000122414174        0.000454088013614
        0.036283264897575       -0.000000278462981       -0.000000137321714        0.000475451974806
        0.038702149224080       -0.000000310333810       -0.000000153037876        0.000496779216453
        0.041121033550585       -0.000000341176658       -0.000000168248009        0.000514053188078
        0.043539917877090       -0.000000373332204       -0.000000184104395        0.000531281219136
        0.045958802203595       -0.000000403606242       -0.000000199033954        0.000544163195388
        0.048377686530100       -0.000000434838823       -0.000000214434985        0.000556989547672
        0.050796570856605       -0.000000463323718       -0.000000228482156        0.000565245818171
        0.053215455183110       -0.000000492393249       -0.000000242816283        0.000573436539090
        0.055634339509615       -0.000000517861007       -0.000000255375489        0.000576905565217
        0.058053223836120       -0.000000543525541       -0.000000268030259        0.000580299105584
        0.060472108162625       -0.000000564771345       -0.000000278507367        0.000578894248826
        0.062890992489130       -0.000000585818199       -0.000000288884776        0.000577404198930
        0.065309876815635       -0.000000601691250       -0.000000296712311        0.000571115258513
        0.067728761142140       -0.000000616968043       -0.000000304244113        0.000564731889608
        0.070147645468645       -0.000000626401731       -0.000000308896140        0.000553625425816
        0.072566529795150       -0.000000634846644       -0.000000313058772        0.000542416013333
        0.074985414121655       -0.000000636887373       -0.000000314065105        0.000526634452415
        0.077404298448160       -0.000000637557973       -0.000000314393898        0.000510742376758
        0.079823182774665       -0.000000631392001       -0.000000311353340        0.000490501912797
        0.082242067101170       -0.000000623491975       -0.000000307455701        0.000470144553119
        0.084660951427675       -0.000000608469660       -0.000000300047994        0.000445731881447
        0.087079835754180       -0.000000591372855       -0.000000291615254        0.000421197337089
        0.089498720080685       -0.000000567029746       -0.000000279611473        0.000392965272430
        0.091917604407190       -0.000000540300959       -0.000000266429133        0.000364607965324
        0.094336488733695       -0.000000506375231       -0.000000249700278        0.000332970015542
        0.096755373060200       -0.000000469787251       -0.000000231656408        0.000301205244663
        0.099174257386705       -0.000000426233067       -0.000000210179981        0.000266629227527
        0.101593141713210       -0.000000379779549       -0.000000187271558        0.000231926763049
        0.104012026039715       -0.000000326775983       -0.000000161135960        0.000194927568500
        0.106430910366220       -0.000000270679820       -0.000000133472984        0.000157804388427
        0.108849794692725       -0.000000208635099       -0.000000102879594        0.000118936002245
        0.111268679019230       -0.000000143352025       -0.000000070686863        0.000079948287775
        0.113687563345735       -0.000000072902917       -0.000000035949730        0.000039795204082
        0.116106447672240        0.000000000879800        0.000000000433817       -0.000000470278508
        0.118525331998745        0.000000078873527        0.000000038890711       -0.000041302119052
        0.120944216325250        0.000000160243369        0.000000079015093       -0.000082237112691
        0.123363100651755        0.000000244709372        0.000000120662980       -0.000123129714841
        0.125781984978260        0.000000332539784        0.000000163972712       -0.000164113897549
        0.128200869304765        0.000000422208334        0.000000208185526       -0.000204446784528
        0.130619753631270        0.000000515174731        0.000000254027505       -0.000244857377359
        0.133038637957775        0.000000608598433        0.000000300091606       -0.000284017193398
        0.135457522284280        0.000000705198746        0.000000347725245       -0.000323238598343
        0.137876406610785        0.000000800776462        0.000000394851211       -0.000360628588970
        0.140295290937290        0.000000899355899        0.000000443460644       -0.000398061904602
        0.142714175263795        0.000000995360464        0.000000490796931       -0.000433111125255
        0.145133059590300        0.000001094140053        0.000000539505074       -0.000468183390160
        0.147551943916805        0.000001188749293        0.000000586153304       -0.000500355498352
        0.149970828243310        0.000001285857697        0.000000634037540       -0.000532528517097
        0.152389712569815        0.000001377188171        0.000000679069127       -0.000561330010325
        0.154808596896320        0.000001470696202        0.000000725178312       -0.000590108623651
        0.157227481222825        0.000001556839046        0.000000767652129       -0.000615096394370
        0.159646365549330        0.000001644796233        0.000000811024613       -0.000640036064464
        0.162065249875835        0.000001723854428        0.000000850005356       -0.000660824154602
        0.164484134202340        0.000001804326943        0.000000889687676       -0.000681537747467
        0.166903018528845        0.000001874453277        0.000000924264573       -0.000697803197935
        0.169321902855350        0.000001945562497        0.000000959330459       -0.000713966857901
        0.171740787181855        0.000002004997488        0.000000988635968       -0.000725454563172
        0.174159671508360        0.000002064958442        0.000001018205291       -0.000736812589219
        0.176578555834865        0.000002112067471        0.000001041433399       -0.000743339083038
        0.178997440161370        0.000002159226398        0.000001064690692       -0.000749707732657
        0.181416324487875        0.000002192535298        0.000001081114465       -0.000751163848064
        0.183835208814380        0.000002225405583        0.000001097326638       -0.000752434011535
        0.186254093140885        0.000002243633955        0.000001106314646       -0.000748786376360
        0.188672977467390        0.000002260929690        0.000001114847539       -0.000744925082355
        0.191091861793895        0.000002263021258        0.000001115878832       -0.000736216429864
        0.193510746120400        0.000002263687740        0.000001116212254       -0.000727267161863
        0.195929630446905        0.000002248837093        0.000001108889550       -0.000713615455060
        0.198348514773410        0.000002232077601        0.000001100630493       -0.000699697276924
        0.200767399099915        0.000002199752731        0.000001084691302       -0.000681293663740
        0.203186283426420        0.000002165051001        0.000001067585030       -0.000662599171621
        0.205605167752925        0.000002115011127        0.000001042910450       -0.000639704806681
        0.208024052079430        0.000002062149003        0.000001016849214       -0.000616496942920
        0.210442936405935        0.000001994457243        0.000000983470190       -0.000589438729388
        0.212861820732440        0.000001923527079        0.000000948499352       -0.000562046511936
        0.215280705058945        0.000001838557635        0.000000906600231       -0.000531211833819
        0.217699589385450        0.000001749969107        0.000000862921632       -0.000500025071689
        0.220118473711955        0.000001648408717        0.000000812840887       -0.000465855602742
        0.222537358038460        0.000001542889814        0.000000760813347       -0.000431318683775
        0.224956242364965        0.000001425733336        0.000000703041408       -0.000394303373460
        0.227375126691470        0.000001304325395        0.000000643178285       -0.000356908225088
        0.229794011017975        0.000001172865508        0.000000578352466       -0.000317575574720
        0.232212895344480        0.000001036912284        0.000000511316269       -0.000277853911138
        0.234631779670985        0.000000892723374        0.000000440212827       -0.000236763664206
        0.237050663997490        0.000000743854230        0.000000366806933       -0.000195278644277
        0.239469548323995        0.000000588770668        0.000000290330361       -0.000153013023794
        0.241888432650500        0.000000428878101        0.000000211487935       -0.000110350452906
        0.244307316977005        0.000000264967224        0.000000130657632       -0.000067505085338
        0.246726201303510        0.000000096179038        0.000000047427904       -0.000024264301211
        0.249145085630015       -0.000000074290774       -0.000000036637561        0.000018561028946
        0.251563969956520       -0.000000249644226       -0.000000123105454        0.000061776441994
        0.253982854283025       -0.000000424239849       -0.000000209206247        0.000103987060736
        0.256401738609530       -0.000000603662829       -0.000000297681590        0.000146578582292
        0.258820622936035       -0.000000779826490       -0.000000384556388        0.000187594071598
        0.261239507262540       -0.000000960698838       -0.000000473747089        0.000228977433786
        0.263658391589045       -0.000001135791312       -0.000000560094386        0.000268240510373
        0.266077275915550       -0.000001315412521       -0.000000648668716        0.000307854620359
        0.268496160242055       -0.000001486758694       -0.000000733169297        0.000344839608700
        0.270915044568560       -0.000001662394324       -0.000000819778784        0.000382155065519
        0.273333928895065       -0.000001827330317       -0.000000901118960        0.000416375833009
        0.275752813221570       -0.000001996259947       -0.000000984422036        0.000450902906022
        0.278171697548075       -0.000002152180953       -0.000001061317247        0.000481920137107
        0.280590581874580       -0.000002311746812       -0.000001140003229        0.000513216082362
        0.283009466201085       -0.000002456154784       -0.000001211221554        0.000540643779321
        0.285428350527590       -0.000002603810168       -0.000001284034527        0.000568319380951
        0.287847234854095       -0.000002734360471       -0.000001348419690        0.000591830491630
        0.290266119180600       -0.000002867717072       -0.000001414181844        0.000615555728047
        0.292685003507105       -0.000002982263223       -0.000001470675280        0.000634886814973
        0.295103887833610       -0.000003099136473       -0.000001528309265        0.000654395563778
        0.297522772160115       -0.000003195772115       -0.000001575970814        0.000669350444521
        0.299941656486620       -0.000003294223682       -0.000001624520701        0.000684444155538
        0.302360540813125       -0.000003371320983       -0.000001662547545        0.000694896460700
        0.304779425139630       -0.000003449697600       -0.000001701197966        0.000705446743062
        0.307198309466135       -0.000003505941298       -0.000001728941414        0.000711341355567
        0.309617193792640       -0.000003562909147       -0.000001757034520        0.000717291442133
        0.312036078119145       -0.000003597325557       -0.000001774014310        0.000718644799296
        0.314454962445650       -0.000003631899511       -0.000001791064189        0.000720009869542
        0.316873846772155       -0.000003643879869       -0.000001796980001        0.000716909127449
        0.319292731098660       -0.000003655446975       -0.000001802684257        0.000713775488076
        0.321711615425165       -0.000003644764599       -0.000001797424176        0.000706376565809
        0.324130499751670       -0.000003633101264       -0.000001791672409        0.000698899706368
        0.326549384078175       -0.000003599922114       -0.000001775318134        0.000687424245262
        0.328968268404680       -0.000003565204591       -0.000001758197109        0.000675825803827
        0.331387152731185       -0.000003510090918       -0.000001731025756        0.000660557094002
        0.333806037057690       -0.000003452898774       -0.000001702821121        0.000645120785035
        0.336224921384195       -0.000003376805671       -0.000001665303531        0.000626398727631
        0.338643805710700       -0.000003298118060       -0.000001626497984        0.000607465300426
        0.341062690037205       -0.000003202382858       -0.000001579293495        0.000585680488994
        0.343481574363710       -0.000003103567534       -0.000001530561375        0.000563641800200
        0.345900458690215       -0.000002989892105       -0.000001474509106        0.000539228818399
        0.348319343016720       -0.000002872687260       -0.000001416707440        0.000514521115872
        0.350738227343225       -0.000002743113419       -0.000001352814169        0.000487951160713
        0.353157111669730       -0.000002609602527       -0.000001286970283        0.000461047688112
        0.355575995996235       -0.000002466480859       -0.000001216395080        0.000432820638349
        0.357994880322740       -0.000002319060878       -0.000001143690918        0.000404223680319
        0.360413764649245       -0.000002165013424       -0.000001067726755        0.000374859738010
        0.362832648975750       -0.000002006356791       -0.000000989480150        0.000345092234257
        0.365251533302255       -0.000001844234168       -0.000000909532758        0.000315123273897
        0.367670417628760       -0.000001677245164       -0.000000827175916        0.000284720136937
        0.370089301955265       -0.000001510078769       -0.000000744740222        0.000254680900821
        0.372508186281770       -0.000001337844929       -0.000000659795769        0.000224180176457
        0.374927070608275       -0.000001168795003       -0.000000576430286        0.000194599456977
        0.377345954934780       -0.000000994534360       -0.000000490485249        0.000164533468670
        0.379764839261285       -0.000000826834760       -0.000000407784841        0.000135925418074
        0.382183723587790       -0.000000653839767       -0.000000322462995        0.000106812036241
        0.384602607914295       -0.000000490740371       -0.000000242030472        0.000079667742001
        0.387021492240800       -0.000000322319455       -0.000000158963516        0.000052001916920
        0.389440376567305       -0.000000167027168       -0.000000082380539        0.000026781376284
        0.391859260893810       -0.000000006444892       -0.000000003178582        0.000001027068755
        0.394278145220315        0.000000137935706        0.000000068023617       -0.000021848310556
        0.396697029546820        0.000000287518826        0.000000141801743       -0.000045265673269
        0.399115913873325        0.000000418044179        0.000000206171309       -0.000065419927922
        0.401534798199830        0.000000553631165        0.000000273047396       -0.000086120351956
        0.403953682526335        0.000000667575709        0.000000329239961       -0.000103229065570
        0.406372566852840        0.000000786390844        0.000000387844897       -0.000120884137675
        0.408791451179345        0.000000881301237        0.000000434650328       -0.000134679695363
        0.411210335505850        0.000000980844991        0.000000483751197       -0.000149017881171
        0.413629219832355        0.000001054590584        0.000000520118499       -0.000159293793964
        0.416048104158860        0.000001132690721        0.000000558643793       -0.000170104804592
        0.418466988485365        0.000001183509341        0.000000583703694       -0.000176719036477
        0.420885872811870        0.000001238367251        0.000000610766172       -0.000183857195681
        0.423304757138375        0.000001264905379        0.000000623850948       -0.000186734441903
        0.425723641464880        0.000001295136743        0.000000638767695       -0.000190121001855
        0.428142525791385        0.000001296483318        0.000000639427849       -0.000189253883747
        0.430561410117890        0.000001301152289        0.000000641737145       -0.000188878254239
        0.432980294444395        0.000001276865415        0.000000629754580       -0.000184327413015
        0.435399178770900        0.000001255511614        0.000000619229217       -0.000180247286058
        0.437818063097405        0.000001205637580        0.000000594626624       -0.000172140375380
        0.440236947423910        0.000001158295303        0.000000571283381       -0.000164480744608
        0.442655831750415        0.000001083379454        0.000000534329603       -0.000153010339092
        0.445074716076920        0.000001010588627        0.000000498434657       -0.000141961430791
        0.447493600403425        0.000000911677735        0.000000449645861       -0.000127381884647
        0.449912484729930        0.000000814486267        0.000000401715942       -0.000113196034325
        0.452331369056435        0.000000693122225        0.000000341852510       -0.000095819340779
        0.454750253382940        0.000000573079577        0.000000282651736       -0.000078806865714
        0.457169137709445        0.000000431284350        0.000000212710846       -0.000058997583524
        0.459588022035950        0.000000290426255        0.000000143243187       -0.000039521717425
        0.462006906362455        0.000000130678198        0.000000064447128       -0.000017691045308
        0.464425790688960       -0.000000028497345       -0.000000014055433        0.000003837984124
        0.466844675015465       -0.000000203295567       -0.000000100275075        0.000027238891023
        0.469263559341970       -0.000000377860795       -0.000000186368572        0.000050370547551
        0.471682443668475       -0.000000564422277       -0.000000278390682        0.000074857913294
