#             time (fs)      |   total net charge (e)  |   charge (atom_1) (e)   |   charge (atom_2) (e)   |        ...        |   charge (atom_N) (e)   |
          0.000000000000000       -0.000000000000000       -0.000000000000000        0.000000000000000
          0.120944216325250        0.000000000009098        0.000110829061235       -0.000110829052137
          0.241888432650500        0.000000000011663        0.000148312013480       -0.000148312001817
          0.362832648975750        0.000000000007836       -0.000462556627592        0.000462556635428
          0.483776865301000       -0.000000000000755       -0.000266165410916        0.000266165410161
          0.604721081626250       -0.000000000015355        0.000624629230671       -0.000624629246025
          0.725665297951500       -0.000000000034786        0.000657277813830       -0.000657277848616
          0.846609514276750       -0.000000000059471       -0.000987682436527        0.000987682377056
          0.967553730602000       -0.000000000082050       -0.000743379048808        0.000743378966758
          1.088497946927250       -0.000000000110072        0.000695457831784       -0.000695457941856
          1.209442163252500       -0.000000000136191        0.001632897644934       -0.001632897781125
          1.330386379577750       -0.000000000166252       -0.001269533139651        0.001269532973399
          1.451330595903000       -0.000000000187190       -0.001334343794960        0.001334343607770
          1.572274812228250       -0.000000000210861        0.000229924610254       -0.000229924821115
          1.693219028553500       -0.000000000228125        0.002776917275558       -0.002776917503683
          1.814163244878750       -0.000000000245094       -0.001074453660646        0.001074453415552
          1.935107461204000       -0.000000000253054       -0.001924553618122        0.001924553365069
          2.056051677529250       -0.000000000257729       -0.000697759127011        0.000697758869283
          2.176995893854500       -0.000000000256869        0.003679449467204       -0.003679449724072
          2.297940110179750       -0.000000000250244       -0.000258159154683        0.000258158904439
          2.418884326505000       -0.000000000240433       -0.002379115745702        0.002379115505270
          2.539828542830250       -0.000000000224178       -0.001901633281591        0.001901633057412
          2.660772759155500       -0.000000000202725        0.003990490085728       -0.003990490288452
          2.781716975480750       -0.000000000177434        0.001102933500330       -0.001102933677763
          2.902661191806000       -0.000000000151252       -0.002489708662963        0.002489708511711
          3.023605408131250       -0.000000000125681       -0.003204550669497        0.003204550543816
          3.144549624456500       -0.000000000089607        0.003577100445282       -0.003577100534888
          3.265493840781750       -0.000000000062078        0.002682687868921       -0.002682687930999
          3.386438057107000       -0.000000000030793       -0.002016301585319        0.002016301554525
          3.507382273432250       -0.000000000010826       -0.004460431804787        0.004460431793960
          3.628326489757500        0.000000000022749        0.002510436956331       -0.002510436933582
          3.749270706082750        0.000000000037316        0.004051295292214       -0.004051295254897
          3.870214922408000        0.000000000052094       -0.000825763958209        0.000825764010303
          3.991159138733250        0.000000000060228       -0.005499489878013        0.005499489938241
          4.112103355058500        0.000000000068945        0.000960582147778       -0.000960582078833
          4.233047571383750        0.000000000065806        0.004844591278965       -0.004844591213160
          4.353991787709000        0.000000000046315        0.001024274844612       -0.001024274798298
          4.474936004034250        0.000000000047060       -0.006112824227648        0.006112824274708
          4.595880220359500        0.000000000020475       -0.000882017352135        0.000882017372610
          4.716824436684750        0.000000000004966        0.004856783024772       -0.004856783019806
          4.837768653010000       -0.000000000041583        0.003280116742107       -0.003280116783690
          4.958712869335250       -0.000000000042502       -0.006054719027148        0.006054718984645
          5.079657085660500       -0.000000000087833       -0.002875428227904        0.002875428140070
          5.200601301985750       -0.000000000104810        0.004093765860058       -0.004093765964868
          5.321545518311000       -0.000000000145403        0.005504872512282       -0.005504872657685
          5.442489734636251       -0.000000000147593       -0.005044986606004        0.005044986458410
          5.563433950961501       -0.000000000174855       -0.004944047179960        0.004944047005104
          5.684378167286750       -0.000000000182030        0.002726002575283       -0.002726002757313
          5.805322383612000       -0.000000000188730        0.007202969906845       -0.007202970095575
          5.926266599937250       -0.000000000186973       -0.002918795541937        0.002918795354965
          6.047210816262500       -0.000000000175514       -0.006901601736361        0.006901601560847
          6.168155032587750       -0.000000000165409        0.000857175193561       -0.000857175358970
          6.289099248913001       -0.000000000144432        0.008083232247727       -0.008083232392159
          6.410043465238251       -0.000000000120506        0.000133456927226       -0.000133457047732
          6.530987681563500       -0.000000000098448       -0.008278043717645        0.008278043619197
          6.651931897888750       -0.000000000065405       -0.001574359414539        0.001574359349134
          6.772876114214000       -0.000000000051922        0.008090347792455       -0.008090347844377
          6.893820330539250        0.000000000006203        0.003637766128584       -0.003637766122381
          7.014764546864500       -0.000000000014451       -0.008531805269749        0.008531805255297
          7.135708763189751        0.000000000041455       -0.004513766658738        0.004513766700193
          7.256652979515001        0.000000000015801        0.007143614844597       -0.007143614828797
          7.377597195840250        0.000000000091912        0.007115794233114       -0.007115794141203
          7.498541412165500        0.000000000009979       -0.007364782662251        0.007364782672230
          7.619485628490750        0.000000000066984       -0.007581361372446        0.007581361439429
          7.740429844816000        0.000000000007929        0.005089321580981       -0.005089321573052
          7.861374061141250        0.000000000061819        0.010118165933447       -0.010118165871628
          7.982318277466501       -0.000000000042564       -0.004752918042860        0.004752918000296
          8.103262493791750       -0.000000000024346       -0.010204545991052        0.010204545966706
          8.224206710117000       -0.000000000075265        0.001923790403185       -0.001923790478450
          8.345150926442249       -0.000000000077267        0.012124470513502       -0.012124470590769
          8.466095142767500       -0.000000000146993       -0.000877559527654        0.000877559380662
          8.587039359092751       -0.000000000186619       -0.011822738841173        0.011822738654553
          8.707983575418000       -0.000000000197234       -0.002055919975422        0.002055919778188
          8.828927791743251       -0.000000000245009        0.012602268256033       -0.012602268501042
          8.949872008068500       -0.000000000261779        0.003849468667669       -0.003849468929448
          9.070816224393750       -0.000000000323216       -0.011992086460957        0.011992086137741
          9.191760440718999       -0.000000000308437       -0.006305512714293        0.006305512405855
          9.312704657044250       -0.000000000345893        0.011223691331900       -0.011223691677793
          9.433648873369501       -0.000000000341332        0.008736066686291       -0.008736067027623
          9.554593089694750       -0.000000000355758       -0.010431201033626        0.010431200677869
          9.675537306020001       -0.000000000355597       -0.010197408190779        0.010197407835182
          9.796481522345250       -0.000000000333224        0.008047858720526       -0.008047859053750
          9.917425738670500       -0.000000000338304        0.012896494020352       -0.012896494358656
         10.038369954995749       -0.000000000276320       -0.007111522377512        0.007111522101191
         10.159314171321000       -0.000000000295147       -0.013132016084478        0.013132015789330
         10.280258387646251       -0.000000000230791        0.003492661103325       -0.003492661334116
         10.401202603971500       -0.000000000223599        0.015525233503440       -0.015525233727039
         10.522146820296751       -0.000000000140711       -0.002383637604391        0.002383637463680
         10.643091036622000       -0.000000000127236       -0.014572267207127        0.014572267079892
         10.764035252947250       -0.000000000101195       -0.001842813574170        0.001842813472975
         10.884979469272501       -0.000000000024418        0.016159572230995       -0.016159572255414
         11.005923685597750       -0.000000000016454        0.003039321949538       -0.003039321965992
         11.126867901923001        0.000000000077792       -0.014130426673740        0.014130426751533
         11.247812118248250        0.000000000003724       -0.007303686449878        0.007303686453602
         11.368756334573501        0.000000000165358        0.014724210788905       -0.014724210623547
         11.489700550898750        0.000000000059571        0.008304432895998       -0.008304432836427
         11.610644767224001        0.000000000208760       -0.011708897881956        0.011708898090716
         11.731588983549251        0.000000000065531       -0.012216614364050        0.012216614429581
         11.852533199874500        0.000000000240685        0.011406299634918       -0.011406299394234
         11.973477416199751        0.000000000083612        0.012679735797890       -0.012679735714278
         12.094421632525000        0.000000000199445       -0.007566444715950        0.007566444915395
         12.215365848850251        0.000000000085939       -0.015914616305539        0.015914616391478
         12.336310065175500        0.000000000174174        0.006507385237583       -0.006507385063410
         12.457254281500751        0.000000000069002        0.015697149909848       -0.015697149840846
         12.578198497826001        0.000000000094605       -0.002259329905958        0.002259330000562
         12.699142714151250        0.000000000068668       -0.017792264582153        0.017792264650821
         12.820086930476501        0.000000000054903        0.000387862024076       -0.000387861969173
         12.941031146801750        0.000000000037989        0.017101906386667       -0.017101906348678
         13.061975363127001        0.000000000015221        0.003553807613829       -0.003553807598608
         13.182919579452250        0.000000000028932       -0.017457640686215        0.017457640715147
         13.303863795777501        0.000000000018670       -0.006407083758490        0.006407083777160
         13.424808012102751        0.000000000014066        0.016627337241184       -0.016627337227118
         13.545752228428000        0.000000000047352        0.009358772912164       -0.009358772864812
         13.666696444753251        0.000000000008705       -0.014896029855860        0.014896029864565
         13.787640661078500        0.000000000108473       -0.013030548214469        0.013030548322943
         13.908584877403751        0.000000000017078        0.013928489739260       -0.013928489722182
         14.029529093729000        0.000000000162933        0.014745551433121       -0.014745551270187
         14.150473310054251        0.000000000047406       -0.010343888145217        0.010343888192622
         14.271417526379501        0.000000000217543       -0.018543916470634        0.018543916688177
         14.392361742704750        0.000000000062773        0.008898416618113       -0.008898416555340
         14.513305959030001        0.000000000236415        0.019089843876935       -0.019089843640520
         14.634250175355250        0.000000000136333       -0.004046605087258        0.004046605223591
         14.755194391680501        0.000000000199991       -0.022179759864245        0.022179760064236
         14.876138608005750        0.000000000134078        0.001918688283345       -0.001918688149267
         14.997082824331001        0.000000000158220        0.021517585457810       -0.021517585299590
         15.118027040656251        0.000000000210198        0.003636885447535       -0.003636885237337
         15.238971256981500        0.000000000021471       -0.023323162319546        0.023323162341017
         15.359915473306751        0.000000000156829       -0.006222098412589        0.006222098569418
         15.480859689632000       -0.000000000050138        0.021229773867937       -0.021229773918075
         15.601803905957251        0.000000000178350        0.011966599077654       -0.011966598899304
         15.722748122282500       -0.000000000210859       -0.021479939620460        0.021479939409601
         15.843692338607751        0.000000000051512       -0.014478583269367        0.014478583320878
         15.964636554933001       -0.000000000258247        0.017825687294237       -0.017825687552484
         16.085580771258250       -0.000000000000296        0.019770615995835       -0.019770615996131
         16.206524987583499       -0.000000000359226       -0.016431951928221        0.016431951568995
         16.327469203908752       -0.000000000166497       -0.021664950736971        0.021664950570474
         16.448413420234001       -0.000000000363942        0.011476850406128       -0.011476850770070
         16.569357636559250       -0.000000000242882        0.025664056932619       -0.025664057175501
         16.690301852884499       -0.000000000387365       -0.008467459484797        0.008467459097433
         16.811246069209751       -0.000000000352111       -0.026596027031890        0.026596026679778
         16.932190285535000       -0.000000000378694        0.002920702203784       -0.002920702582478
         17.053134501860249       -0.000000000371860        0.028445539115416       -0.028445539487276
         17.174078718185502       -0.000000000366407        0.001471492990433       -0.001471493356840
         17.295022934510751       -0.000000000334505       -0.028269279878569        0.028269279544064
         17.415967150836000       -0.000000000367083       -0.006705674064051        0.006705673696968
         17.536911367161249       -0.000000000263160        0.027471470018963       -0.027471470282123
         17.657855583486501       -0.000000000350719        0.011891525027784       -0.011891525378504
         17.778799799811750       -0.000000000083581       -0.026114482984527        0.026114482900945
         17.899744016136999       -0.000000000330377       -0.016060292966714        0.016060292636337
         18.020688232462252        0.000000000022352        0.022778187232273       -0.022778187209922
         18.141632448787501       -0.000000000286481        0.021141289571821       -0.021141289858301
         18.262576665112750        0.000000000236945       -0.020235525741829        0.020235525978774
         18.383520881437999       -0.000000000192822       -0.023776445004509        0.023776444811688
         18.504465097763251        0.000000000277672        0.014968319874972       -0.014968319597299
         18.625409314088500       -0.000000000082006        0.027845063241965       -0.027845063323970
         18.746353530413749        0.000000000407416       -0.011421015006135        0.011421015413551
         18.867297746739002        0.000000000079952       -0.028706518734035        0.028706518813987
         18.988241963064251        0.000000000342126        0.005048960794283       -0.005048960452157
         19.109186179389500        0.000000000238168        0.031109673062272       -0.031109672824104
         19.230130395714749        0.000000000353293       -0.000868940939831        0.000868941293124
         19.351074612040001        0.000000000381101       -0.030170531586438        0.030170531967539
         19.472018828365250        0.000000000250789       -0.005719780553775        0.005719780804564
         19.592963044690499        0.000000000497537        0.030512450089498       -0.030512449591962
         19.713907261015752        0.000000000206866        0.010154350053073       -0.010154349846207
         19.834851477341001        0.000000000532072       -0.028035925071447        0.028035925603518
         19.955795693666250        0.000000000176252       -0.016012171416419        0.016012171592671
         20.076739909991499        0.000000000530886        0.026037389648490       -0.026037389117604
         20.197684126316751        0.000000000166092        0.020474700210963       -0.020474700044871
         20.318628342642000        0.000000000464997       -0.022552722209469        0.022552722674466
         20.439572558967249        0.000000000229837       -0.024675165800006        0.024675166029842
         20.560516775292502        0.000000000385972        0.018091162278101       -0.018091161892129
         20.681460991617751        0.000000000281144        0.028933659033236       -0.028933658752092
         20.802405207943000        0.000000000316063       -0.014082570534001        0.014082570850064
         20.923349424268253        0.000000000346422       -0.030890147728406        0.030890148074827
         21.044293640593501        0.000000000303967        0.007503654994879       -0.007503654690912
         21.165237856918750        0.000000000386866        0.034350700438695       -0.034350700051829
         21.286182073243999        0.000000000319726       -0.003092642777079        0.003092643096805
         21.407126289569252        0.000000000360456       -0.034018105206369        0.034018105566825
         21.528070505894501        0.000000000456379       -0.004690489990151        0.004690490446530
         21.649014722219750        0.000000000294856        0.035774767819122       -0.035774767524266
         21.769958938545003        0.000000000563104        0.009522412189762       -0.009522411626659
         21.890903154870252        0.000000000188719       -0.033337605033796        0.033337605222515
         22.011847371195501        0.000000000737434       -0.017425608749782        0.017425609487215
         22.132791587520749        0.000000000034283        0.032705326738915       -0.032705326704631
         22.253735803846002        0.000000000832428        0.022310842320560       -0.022310841488133
         22.374680020171251       -0.000000000046290       -0.028201606023987        0.028201605977697
         22.495624236496500        0.000000000838777       -0.029434236180226        0.029434237019003
         22.616568452821753       -0.000000000169869        0.025080911917652       -0.025080912087522
         22.737512669147002        0.000000000792808        0.033484156910057       -0.033484156117249
         22.858456885472251       -0.000000000129287       -0.018484348667670        0.018484348538383
         22.979401101797500        0.000000000547708       -0.039102002655478        0.039102003203186
         23.100345318122752       -0.000000000159190        0.013337205681175       -0.013337205840365
