#  GS molecular orbital populations, spin channel : 1
#          time (fs)            |   population (orb 1)       |    population (orb 2)      |           ...              |    population (orb N)      |
          0.118525331998745            2.000038979442657            0.000000368209764  
          0.239469548323995            2.000039463186916            0.000000001097208  
          0.360413764649245            2.000038790669556            0.000000384151638  
          0.481357980974495            2.000038486794094            0.000000000320518  
          0.602302197299745            2.000037053988438            0.000000358552266  
          0.723246413624995            2.000035966260708            0.000000000273005  
          0.844190629950245            2.000033858153806            0.000000309204178  
          0.965134846275495            2.000032030730442            0.000000005885882  
          1.086079062600745            2.000029316302539            0.000000281940706  
          1.207023278925995            2.000026865001905            0.000000013676236  
          1.327967495251245            2.000023598991360            0.000000307191534  
          1.448911711576495            2.000020677855290            0.000000032857726  
          1.569855927901745            2.000016951889084            0.000000371499444  
          1.690800144226995            2.000013683310425            0.000000093246378  
          1.811744360552245            2.000009693343682            0.000000410030376  
          1.932688576877495            2.000006150438007            0.000000187544816  
          2.053632793202745            2.000002162894245            0.000000351909405  
          2.174577009527995            1.999998419481147            0.000000249423959  
          2.295521225853245            1.999994618948254            0.000000216160266  
          2.416465442178495            1.999990811316093            0.000000237119407  
          2.537409658503745            1.999987234217515            0.000000109098131  
          2.658353874828995            1.999983568355591            0.000000185597917  
          2.779298091154245            1.999980234733630            0.000000079077103  
          2.900242307479495            1.999976897924262            0.000000157705046  
          3.021186523804745            1.999973943732506            0.000000067323115  
          3.142130740129995            1.999971000015145            0.000000210549596  
          3.263074956455245            1.999968641006357            0.000000041849198  
          3.384019172780495            1.999966080915905            0.000000374070618  
          3.504963389105745            1.999964510207685            0.000000041081209  
          3.625907605430995            1.999962426092681            0.000000568229813  
          3.746851821756245            1.999961747461301            0.000000055705464  
          3.867796038081495            1.999960375375409            0.000000619226758  
          3.988740254406745            1.999960548428548            0.000000032878316  
          4.109684470731995            1.999960106428000            0.000000465948163  
          4.230628687057245            1.999960968213063            0.000000004284126  
          4.351572903382495            1.999961531555199            0.000000250385068  
          4.472517119707745            1.999962961035049            0.000000036053853  
          4.593461336032996            1.999964485641953            0.000000123916209  
          4.714405552358246            1.999966522379720            0.000000084194495  
          4.835349768683495            1.999968866325808            0.000000104141813  
          4.956293985008745            1.999971593691748            0.000000085100980  
          5.077238201333995            1.999974533965348            0.000000170427916  
          5.198182417659245            1.999977894830853            0.000000120634810  
          5.319126633984495            1.999981270570244            0.000000305499790  
          5.440070850309746            1.999985064846068            0.000000281826093  
          5.561015066634996            1.999988891176125            0.000000393808535  
          5.681959282960245            1.999992900745849            0.000000445550061  
          5.802903499285495            1.999997181251294            0.000000303366267  
          5.923847715610745            2.000001233787903            0.000000418467805  
          6.044791931935995            2.000005680969629            0.000000120585413  
          6.165736148261245            2.000009647986299            0.000000236052949  
          6.286680364586495            2.000013788988304            0.000000063861832  
          6.407624580911745            2.000017572958597            0.000000089052217  
          6.528568797236995            2.000021138964416            0.000000129867741  
          6.649513013562244            2.000024584864145            0.000000048622852  
          6.770457229887494            2.000027602903454            0.000000117090176  
          6.891401446212745            2.000030381516380            0.000000115192085  
          7.012345662537995            2.000032905663770            0.000000029383582  
          7.133289878863245            2.000034637440187            0.000000374487916  
          7.254234095188495            2.000036634331395            0.000000072513973  
          7.375178311513745            2.000037239932440            0.000000766149217  
          7.496122527838994            2.000038700206726            0.000000199350053  
          7.617066744164244            2.000038468621910            0.000000914816791  
          7.738010960489495            2.000039307283050            0.000000151229965  
          7.858955176814745            2.000038514417906            0.000000614164974  
          7.979899393139995            2.000038389271588            0.000000013875979  
          8.100843609465246            2.000037089821055            0.000000202300300  
          8.221787825790495            2.000035703982892            0.000000107664646  
          8.342732042115745            2.000033951045405            0.000000027384922  
          8.463676258440994            2.000031517175665            0.000000297792401  
          8.584620474766245            2.000029342536122            0.000000003448645  
          8.705564691091494            2.000026400334911            0.000000198594469  
          8.826508907416745            2.000023487029191            0.000000116665771  
          8.947453123741996            2.000020385759823            0.000000003572445  
          9.068397340067245            2.000016383201966            0.000000603886670  
          9.189341556392495            2.000013262409820            0.000000164943707  
          9.310285772717744            2.000008574400727            0.000001168920864  
          9.431229989042995            2.000005513804293            0.000000455446273  
          9.552174205368244            2.000001074918365            0.000001065834237  
          9.673118421693495            1.999997899446706            0.000000395001997  
          9.794062638018746            1.999994071203350            0.000000393862144  
          9.915006854343995            1.999990498427369            0.000000189173100  
         10.035951070669245            1.999986926269689            0.000000068109494  
         10.156895286994494            1.999983221894996            0.000000197032610  
         10.277839503319745            1.999979729673464            0.000000264392771  
         10.398783719644994            1.999976574559326            0.000000178883508  
         10.519727935970245            1.999973413146244            0.000000317205094  
         10.640672152295496            1.999970914622338            0.000000041055467  
         10.761616368620745            1.999968306597663            0.000000151994681  
         10.882560584945995            1.999965951913371            0.000000312098206  
         11.003504801271244            1.999964129368024            0.000000265741641  
         11.124449017596495            1.999961860615357            0.000001012193965  
         11.245393233921744            1.999961221888155            0.000000494461150  
         11.366337450246995            1.999959681612282            0.000001262042247  
         11.487281666572246            1.999960244664236            0.000000323558955  
         11.608225882897495            1.999959872326064            0.000000727746473  
         11.729170099222745            1.999961008936902            0.000000033403220  
         11.850114315547994            1.999961717065219            0.000000177027952  
         11.971058531873245            1.999962987386963            0.000000161802174  
         12.092002748198494            1.999964692219831            0.000000106316600  
         12.212946964523745            1.999966425579993            0.000000403718244  
         12.333891180848996            1.999969094360096            0.000000130339463  
         12.454835397174245            1.999971682081557            0.000000281694480  
         12.575779613499495            1.999974965703685            0.000000053117597  
         12.696723829824744            1.999978152164992            0.000000205851535  
         12.817668046149995            1.999981722285786            0.000000220248613  
         12.938612262475244            1.999985054364481            0.000000677702586  
         13.059556478800495            1.999989134751969            0.000000547848277  
         13.180500695125746            1.999992594648111            0.000001155622980  
         13.301444911450995            1.999997417377542            0.000000472887350  
         13.422389127776245            2.000001164670256            0.000000891463606  
         13.543333344101494            2.000006105243360            0.000000096312879  
         13.664277560426745            2.000010031616053            0.000000245231413  
         13.785221776751994            2.000014097109617            0.000000137705614  
         13.906165993077245            2.000018023032574            0.000000003967187  
         14.027110209402496            2.000021052498077            0.000000558489543  
         14.148054425727745            2.000024884698226            0.000000062351091  
         14.268998642052996            2.000027440841085            0.000000560514438  
         14.389942858378244            2.000030735345043            0.000000009510985  
         14.510887074703495            2.000032979874794            0.000000169717603  
         14.631831291028744            2.000034945743180            0.000000248117335  
         14.752775507353995            2.000036582753341            0.000000271469315  
         14.873719723679246            2.000037040850585            0.000001076250713  
         14.994663940004495            2.000038185626603            0.000000784574609  
         15.115608156329746            2.000037858947318            0.000001552852541  
         15.236552372654995            2.000038775280499            0.000000669266265  
         15.357496588980245            2.000038128562826            0.000000946191936  
         15.478440805305494            2.000038230256119            0.000000083926935  
         15.599385021630745            2.000036965612755            0.000000205350687  
         15.720329237955996            2.000035403151498            0.000000257666877  
         15.841273454281245            2.000033573579890            0.000000223208385  
         15.962217670606496            2.000030646045552            0.000000956015857  
         16.083161886931745            2.000028830405498            0.000000271576144  
         16.204106103256994            2.000025528714603            0.000000798295809  
         16.325050319582246            2.000023308320389            0.000000001632984  
         16.445994535907495            2.000019967254685            0.000000112278358  
         16.566938752232744            2.000016064282744            0.000000602405556  
         16.687882968557997            2.000012776897667            0.000000320759571  
         16.808827184883246            2.000007371411947            0.000002033411392  
         16.929771401208495            2.000004673851292            0.000000947687390  
         17.050715617533744            1.999999567390997            0.000002218709761  
         17.171659833858996            1.999997276658598            0.000000661436189  
         17.292604050184245            1.999993314010994            0.000000799494630  
         17.413548266509494            1.999990172756287            0.000000174865953  
         17.534492482834747            1.999986647893457            0.000000021043836  
         17.655436699159996            1.999982483018927            0.000000626219111  
         17.776380915485245            1.999979106032463            0.000000592795895  
         17.897325131810494            1.999975491917693            0.000000981207450  
         18.018269348135746            1.999972676385293            0.000000791648626  
         18.139213564460995            1.999970389242849            0.000000327329593  
         18.260157780786244            1.999967955182498            0.000000294492701  
         18.381101997111497            1.999965967182112            0.000000121655914  
         18.502046213436746            1.999963710727451            0.000000545023369  
         18.622990429761995            1.999961527669485            0.000001239186148  
         18.743934646087244            1.999960343419222            0.000001298633781  
         18.864878862412496            1.999958981059763            0.000001919143321  
         18.985823078737745            1.999959542816348            0.000001014694111  
         19.106767295062994            1.999959570778245            0.000001055824488  
         19.227711511388247            1.999960965859470            0.000000143053465  
         19.348655727713496            1.999961785915318            0.000000216830866  
         19.469599944038745            1.999963063805511            0.000000232906691  
         19.590544160363994            1.999964470558312            0.000000510412926  
         19.711488376689246            1.999966219122383            0.000000822014438  
         19.832432593014495            1.999968698257066            0.000000764523167  
         19.953376809339744            1.999971643649227            0.000000583809809  
         20.074321025664997            1.999975056617466            0.000000251621976  
         20.195265241990246            1.999978464729556            0.000000209307042  
         20.316209458315495            1.999982211127737            0.000000071009237  
         20.437153674640744            1.999985084865118            0.000001005913192  
         20.558097890965996            1.999989409112538            0.000000643324581  
         20.679042107291245            1.999992102894906            0.000002021291703  
         20.799986323616494            1.999997503626565            0.000000758759499  
         20.920930539941747            2.000000857364252            0.000001566103094  
         21.041874756266996            2.000006419884509            0.000000143551661  
         21.162818972592245            2.000010287545134            0.000000344609963  
         21.283763188917494            2.000014398583859            0.000000183191196  
         21.404707405242746            2.000018226213872            0.000000133777229  
         21.525651621567995            2.000020831467269            0.000001092196336  
         21.646595837893244            2.000024662073169            0.000000569880770  
         21.767540054218497            2.000027010850062            0.000001243143063  
         21.888484270543746            2.000030659528227            0.000000304339013  
         22.009428486868995            2.000032929328253            0.000000406965068  
         22.130372703194244            2.000035285707530            0.000000065375481  
         22.251316919519496            2.000036518402968            0.000000463767183  
         22.372261135844745            2.000037097334415            0.000001117024049  
         22.493205352169994            2.000037426242184            0.000001605540169  
         22.614149568495247            2.000037327266942            0.000002106742959  
         22.735093784820496            2.000037821421115            0.000001603990036  
         22.856038001145745            2.000037694781047            0.000001322127396  
         22.976982217470994            2.000037918706346            0.000000304459924  
         23.097926433796246            2.000036774140999            0.000000278152595  
         23.218870650121495            2.000035217353117            0.000000300919090  
         23.339814866446744            2.000032830858350            0.000000798563562  
         23.460759082771997            2.000029692960235            0.000001714859818  
         23.581703299097246            2.000027629921293            0.000001248519885  
         23.702647515422495            2.000024343367299            0.000001732596238  
         23.823591731747744            2.000022753612621            0.000000283449020  
         23.944535948072996            2.000019401887756            0.000000390477483  
         24.065480164398245            2.000016008891767            0.000000363548486  
         24.186424380723494            2.000012290720156            0.000000507972221  
         24.307368597048747            2.000006476808726            0.000002624080039  
         24.428312813373996            2.000003657228659            0.000001652547106  
         24.549257029699245            1.999997919899345            0.000003546642062  
         24.670201246024494            1.999996453055408            0.000001161384272  
         24.791145462349750            1.999992322602789            0.000001470424482  
         24.912089678674999            1.999989894820701            0.000000143927747  
         25.033033895000248            1.999986375723753            0.000000000630180  
         25.153978111325497            1.999981673879817            0.000001160615944  
         25.274922327650749            1.999978451976554            0.000000986900332  
         25.395866543975998            1.999973825744046            0.000002400401984  
         25.516810760301247            1.999971740317116            0.000001494301631  
         25.637754976626500            1.999969226372197            0.000001275227219  
         25.758699192951749            1.999967569845298            0.000000491262141  
         25.879643409276998            1.999965920086901            0.000000012036404  
         26.000587625602247            1.999963438370818            0.000000696109406  
         26.121531841927499            1.999961508168336            0.000001169786335  
         26.242476058252748            1.999959364105048            0.000002218238943  
         26.363420274577997            1.999958435561708            0.000002430456487  
         26.484364490903250            1.999958473962590            0.000002075528343  
         26.605308707228499            1.999959252087300            0.000001397035355  
         26.726252923553748            1.999960743678991            0.000000422714453  
         26.847197139878997            1.999961828657048            0.000000270768684  
         26.968141356204249            1.999963230182420            0.000000200234116  
         27.089085572529498            1.999964013918142            0.000001133948783  
