#           time (fs)    |     mu_x (e.angstrom)   |     mu_y (e.angstrom)   |     mu_z (e.angstrom)   |
        0.000000000000000       -0.000000000000000       -0.000000000000000        0.000000000000000
        0.002418884326505        0.000000001597622       -0.000000000858622        0.000022941682026
        0.004837768653010        0.000000006389633       -0.000000003434121        0.000045879916981
        0.007256652979515        0.000000014298633       -0.000000007684760        0.000068450425870
        0.009675537306020        0.000000025348701       -0.000000013623709        0.000091017409123
        0.012094421632525        0.000000039284763       -0.000000021113559        0.000112851940979
        0.014513305959030        0.000000056257769       -0.000000030235849        0.000134682789650
        0.016932190285535        0.000000075739178       -0.000000040706010        0.000155428093012
        0.019351074612040        0.000000098104220       -0.000000052726306        0.000176169473269
        0.021769958938545        0.000000122463580       -0.000000065818085        0.000195489531516
        0.024188843265050        0.000000149506477       -0.000000080352548        0.000214805339308
        0.026607727591555        0.000000177906945       -0.000000095616182        0.000232386765296
        0.029026611918060        0.000000208747216       -0.000000112191594        0.000249963519563
        0.031445496244565        0.000000240202897       -0.000000129097211        0.000265520576183
        0.033864380571070        0.000000273814839       -0.000000147162307        0.000281072438288
        0.036283264897575        0.000000307214877       -0.000000165112873        0.000294351604874
        0.038702149224080        0.000000342452291       -0.000000184051623        0.000307624944254
        0.041121033550585        0.000000376588135       -0.000000202397600        0.000318408956297
        0.043539917877090        0.000000412212137       -0.000000221544164        0.000329186389840
        0.045958802203595        0.000000445807379       -0.000000239599542        0.000337297688147
        0.048377686530100        0.000000480516711       -0.000000258254555        0.000345401529475
        0.050796570856605        0.000000512258841       -0.000000275313923        0.000350705064563
        0.053215455183110        0.000000544722003       -0.000000292761767        0.000356000129046
        0.055634339509615        0.000000573295377       -0.000000308118028        0.000358405477096
        0.058053223836120        0.000000602183883       -0.000000323644706        0.000360801198930
        0.060472108162625        0.000000626303181       -0.000000336607065        0.000360263956806
        0.062890992489130        0.000000650325201       -0.000000349518279        0.000359715785661
        0.065309876815635        0.000000668768636       -0.000000359430084        0.000356238224171
        0.067728761142140        0.000000686702290       -0.000000369069136        0.000352748280578
        0.070147645468645        0.000000698343819       -0.000000375325195        0.000346379247122
        0.072566529795150        0.000000709069371       -0.000000381090282        0.000339996227713
        0.074985414121655        0.000000712909195       -0.000000383153254        0.000330830301561
        0.077404298448160        0.000000715439437       -0.000000384513803        0.000321648637354
        0.079823182774665        0.000000710632094       -0.000000381929295        0.000309824552753
        0.082242067101170        0.000000704140221       -0.000000378440942        0.000297982835642
        0.084660951427675        0.000000690019628       -0.000000370850972        0.000283681199696
        0.087079835754180        0.000000673863971       -0.000000362168854        0.000269359904003
        0.089498720080685        0.000000649964830       -0.000000349323351        0.000252800247488
        0.091917604407190        0.000000623709863       -0.000000335213399        0.000236218784674
        0.094336488733695        0.000000589784923       -0.000000316979483        0.000217655994546
        0.096755373060200        0.000000553218037       -0.000000297327435        0.000199069149734
        0.099174257386705        0.000000509250763       -0.000000273696224        0.000178789341879
        0.101593141713210        0.000000462394390       -0.000000248514140        0.000158483150665
        0.104012026039715        0.000000408606728       -0.000000219604921        0.000136799050236
        0.106430910366220        0.000000351725472       -0.000000189035018        0.000115086183010
        0.108849794692725        0.000000288580438       -0.000000155096645        0.000092332087425
        0.111268679019230        0.000000222183002       -0.000000119412329        0.000069546816174
        0.113687563345735        0.000000150381987       -0.000000080821767        0.000046073222307
        0.116106447672240        0.000000075217750       -0.000000040425794        0.000022566051336
        0.118525331998745       -0.000000004307501        0.000000002316188       -0.000001265966398
        0.120944216325250       -0.000000087257253        0.000000046896425       -0.000025133919238
        0.123363100651755       -0.000000173357903        0.000000093172384       -0.000048958489452
        0.125781984978260       -0.000000262894013        0.000000141292398       -0.000072821270670
        0.128200869304765       -0.000000354222442        0.000000190378056       -0.000096273571472
        0.130619753631270       -0.000000448946971        0.000000241286525       -0.000119766236330
        0.133038637957775       -0.000000543979834        0.000000292363164       -0.000142488314140
        0.135457522284280       -0.000000642319896        0.000000345214744       -0.000165252744052
        0.137876406610785       -0.000000739385539        0.000000397383936       -0.000186899211895
        0.140295290937290       -0.000000839621477        0.000000451254403       -0.000208589812042
        0.142714175263795       -0.000000936931207        0.000000503554821       -0.000228833336625
        0.145133059590300       -0.000001037228600        0.000000557458270       -0.000249122523152
        0.147551943916805       -0.000001132911245        0.000000608884258       -0.000267659013633
        0.149970828243310       -0.000001231356157        0.000000661792050       -0.000286242403386
        0.152389712569815       -0.000001323495251        0.000000711313612       -0.000302795819746
        0.154808596896320       -0.000001418132070        0.000000762174711       -0.000319397040480
        0.157227481222825       -0.000001504804967        0.000000808758526       -0.000333723745679
        0.159646365549330       -0.000001593676100        0.000000856520829       -0.000348098790945
        0.162065249875835       -0.000001672994233        0.000000899151893       -0.000359991378520
        0.164484134202340       -0.000001754180889        0.000000942784153       -0.000371932438871
        0.166903018528845       -0.000001824330398        0.000000980487611       -0.000381222976180
        0.169321902855350       -0.000001895993662        0.000001019001507       -0.000390561686878
        0.171740787181855       -0.000001955275564        0.000001050864245       -0.000397124323646
        0.174159671508360       -0.000002015696928        0.000001083336168       -0.000403734378485
        0.176578555834865       -0.000002062566011        0.000001108527713       -0.000407487280549
        0.178997440161370       -0.000002110186553        0.000001134119820       -0.000411286371629
        0.181416324487875       -0.000002143288195        0.000001151912128       -0.000412192950624
        0.183835208814380       -0.000002176745580        0.000001169892230       -0.000413144004742
        0.186254093140885       -0.000002194949704        0.000001179677940       -0.000411213425748
        0.188672977467390       -0.000002213112241        0.000001189437805       -0.000409325119316
        0.191091861793895       -0.000002215543689        0.000001190746554       -0.000404612080008
        0.193510746120400       -0.000002217540702        0.000001191818230       -0.000399938625942
        0.195929630446905       -0.000002203605331        0.000001184330689       -0.000392542412374
        0.198348514773410       -0.000002188853174        0.000001176400486       -0.000385182623951
        0.200767399099915       -0.000002158259094        0.000001159959768       -0.000375245459596
        0.203186283426420       -0.000002126482204        0.000001142879571       -0.000365341107768
        0.205605167752925       -0.000002079255626        0.000001117499751       -0.000353045823601
        0.208024052079430       -0.000002030502104        0.000001091295400       -0.000340779315401
        0.210442936405935       -0.000001966997377        0.000001057166909       -0.000326346379517
        0.212861820732440       -0.000001901648680        0.000001022043405       -0.000311937795902
        0.215280705058945       -0.000001822552208        0.000000979535136       -0.000295621751225
        0.217699589385450       -0.000001741326637        0.000000935878516       -0.000279325292750
        0.220118473711955       -0.000001647654462        0.000000885536530       -0.000261410660632
        0.222537358038460       -0.000001551604248        0.000000833912302       -0.000243510558604
        0.224956242364965       -0.000001444693223        0.000000776455078       -0.000224307274454
        0.227375126691470       -0.000001335195142        0.000000717603180       -0.000205113233534
        0.229794011017975       -0.000001216687714        0.000000653913444       -0.000184951687823
        0.232212895344480       -0.000001095427257        0.000000588739734       -0.000164793933290
        0.234631779670985       -0.000000967250033        0.000000519852933       -0.000144019697355
        0.237050663997490       -0.000000836199316        0.000000449417321       -0.000123243706302
        0.239469548323995       -0.000000700535672        0.000000376506907       -0.000102212027148
        0.241888432650500       -0.000000561925355        0.000000302008260       -0.000081173027681
        0.244307316977005       -0.000000421182494        0.000000226367988       -0.000060243179415
        0.246726201303510       -0.000000277468127        0.000000149126043       -0.000039300505367
        0.249145085630015       -0.000000134239090        0.000000072149548       -0.000018830086915
        0.251563969956520        0.000000011937609       -0.000000006415896        0.000001658522361
        0.253982854283025        0.000000154916382       -0.000000083257905        0.000021319252954
        0.256401738609530        0.000000300770688       -0.000000161650186        0.000041003317513
        0.258820622936035        0.000000440665533       -0.000000236834742        0.000059516982761
        0.261239507262540        0.000000583316611       -0.000000313505540        0.000078058822315
        0.263658391589045        0.000000717245770       -0.000000385483826        0.000095106251688
        0.266077275915550        0.000000853766509       -0.000000458859948        0.000112186313983
        0.268496160242055        0.000000978851375       -0.000000526084835        0.000127471573407
        0.270915044568560        0.000001106320298       -0.000000594596112        0.000142793467091
        0.273333928895065        0.000001219737853       -0.000000655550347        0.000156048512816
        0.275752813221570        0.000001335292194       -0.000000717658163        0.000169343666077
        0.278171697548075        0.000001434327710       -0.000000770882695        0.000180332550301
        0.280590581874580        0.000001535216697       -0.000000825108623        0.000191364422625
        0.283009466201085        0.000001617315740       -0.000000869230548        0.000199886985567
        0.285428350527590        0.000001700953120       -0.000000914184585        0.000208454767231
        0.287847234854095        0.000001763771874       -0.000000947944197        0.000214349758560
        0.290266119180600        0.000001827786712       -0.000000982352062        0.000220291500688
        0.292685003507105        0.000001869239694       -0.000001004628498        0.000223439082400
        0.295103887833610        0.000001911524470       -0.000001027357485        0.000226634209573
        0.297522772160115        0.000001929828695       -0.000001037192464        0.000226957802244
        0.299941656486620        0.000001948583794       -0.000001047275354        0.000227328969444
        0.302360540813125        0.000001942298535       -0.000001043894543        0.000224796414257
        0.304779425139630        0.000001936072243       -0.000001040551099        0.000222310680392
        0.307198309466135        0.000001904133572       -0.000001023382680        0.000216934700143
        0.309617193792640        0.000001871856768       -0.000001006038295        0.000211604001192
        0.312036078119145        0.000001813606153       -0.000000974728335        0.000203441954577
        0.314454962445650        0.000001754620984       -0.000000943029441        0.000195322870462
        0.316873846772155        0.000001669827317       -0.000000897453730        0.000184475805073
        0.319292731098660        0.000001583909206       -0.000000851279627        0.000173668625473
        0.321711615425165        0.000001472783738       -0.000000791551703        0.000160279645909
        0.324130499751670        0.000001360156221       -0.000000731022535        0.000146926751245
        0.326549384078175        0.000001223360001       -0.000000657497685        0.000131178729505
        0.328968268404680        0.000001084701983       -0.000000582978334        0.000115462314006
        0.331387152731185        0.000000923345522       -0.000000496253413        0.000097574979559
        0.333806037057690        0.000000759790681       -0.000000408353183        0.000079714153606
        0.336224921384195        0.000000575425708       -0.000000309262177        0.000059940610175
        0.338643805710700        0.000000388553909       -0.000000208830179        0.000040187928745
        0.341062690037205        0.000000183157202       -0.000000098435519        0.000018810653730
        0.343481574363710       -0.000000025022074        0.000000013448241       -0.000002551873372
        0.345900458690215       -0.000000249072632        0.000000133868548       -0.000025225482960
        0.348319343016720       -0.000000476144705        0.000000255906288       -0.000047890835380
        0.350738227343225       -0.000000716101571        0.000000384875562       -0.000071533299645
        0.353157111669730       -0.000000959278542        0.000000515568914       -0.000095174274664
        0.355575995996235       -0.000001212063050        0.000000651432514       -0.000119443173577
        0.357994880322740       -0.000001468222914        0.000000789103545       -0.000143717521715
        0.360413764649245       -0.000001730470355        0.000000930053098       -0.000168260862659
        0.362832648975750       -0.000001996202699        0.000001072868873       -0.000192816649645
        0.365251533302255       -0.000002264313275        0.000001216969658       -0.000217278375232
        0.367670417628760       -0.000002535970888        0.000001362969974       -0.000241759485919
        0.370089301955265       -0.000002806165757        0.000001508191046       -0.000265785035546
        0.372508186281770       -0.000003079921346        0.000001655318918       -0.000289836733385
        0.374927070608275       -0.000003348302875        0.000001799565486       -0.000313078571427
        0.377345954934780       -0.000003620210008        0.000001945699899       -0.000336353026437
        0.379764839261285       -0.000003882825259        0.000002086847452       -0.000358476050681
        0.382183723587790       -0.000004148882549        0.000002229837856       -0.000380637749602
        0.384602607914295       -0.000004401788966        0.000002365767461       -0.000401324495660
        0.387021492240800       -0.000004658006436        0.000002503469437       -0.000422055450010
        0.389440376567305       -0.000004897338623        0.000002632103633       -0.000441011010837
        0.391859260893810       -0.000005139805157        0.000002762415146       -0.000460015682007
        0.394278145220315       -0.000005361841623        0.000002881753811       -0.000476972266300
        0.396697029546820       -0.000005586792357        0.000003002651428       -0.000493982131414
        0.399115913873325       -0.000005788021077        0.000003110807016       -0.000508703190541
        0.401534798199830       -0.000005991903570        0.000003220381467       -0.000523480878629
        0.403953682526335       -0.000006169085214        0.000003315612989       -0.000535764738610
        0.406372566852840       -0.000006348623245        0.000003412103455       -0.000548107673535
        0.408791451179345       -0.000006498850957        0.000003492848607       -0.000557790616518
        0.411210335505850       -0.000006651104821        0.000003574675129       -0.000567534110922
        0.413629219832355       -0.000006771859456        0.000003639579978       -0.000574492859306
        0.416048104158860       -0.000006894281669        0.000003705373388       -0.000581512612580
        0.418466988485365       -0.000006983481489        0.000003753319082       -0.000585666178368
        0.420885872811870       -0.000007073966872        0.000003801947928       -0.000589880141029
        0.423304757138375       -0.000007130010741        0.000003832073910       -0.000591191013001
        0.425723641464880       -0.000007186939951        0.000003862667846       -0.000592560589828
        0.428142525791385       -0.000007208743205        0.000003874391134       -0.000591035241483
        0.430561410117890       -0.000007231018855        0.000003886360337       -0.000589565816134
        0.432980294444395       -0.000007218041106        0.000003879390467       -0.000585254527976
        0.435399178770900       -0.000007205115752        0.000003872440678       -0.000580995302409
        0.437818063097405       -0.000007157380035        0.000003846789996       -0.000573991302856
        0.440236947423910       -0.000007109275421        0.000003820932865       -0.000567034455533
        0.442655831750415       -0.000007027378212        0.000003776921913       -0.000557472395279
        0.445074716076920       -0.000006944695310        0.000003732480394       -0.000547951572747
        0.447493600403425       -0.000006829807112        0.000003670738224       -0.000536005357776
        0.449912484729930       -0.000006713726644        0.000003608346863       -0.000524093524494
        0.452331369056435       -0.000006567582969        0.000003529806194       -0.000509973542799
        0.454750253382940       -0.000006419856251        0.000003450406203       -0.000495880224038
        0.457169137709445       -0.000006244739006        0.000003356293421       -0.000479830010474
        0.459588022035950       -0.000006067669122        0.000003261122565       -0.000463797972387
        0.462006906362455       -0.000005866378569        0.000003152942651       -0.000446090364666
        0.464425790688960       -0.000005662792029        0.000003043520019       -0.000428391784315
        0.466844675015465       -0.000005438609632        0.000002923036582       -0.000409324630924
        0.469263559341970       -0.000005211818867        0.000002801142428       -0.000390256816767
        0.471682443668475       -0.000004968461510        0.000002670353105       -0.000370148304382
