#     time (fs)  |  E_x (eV/ang)  | E_y (eV/ang) | E_z (eV/ang)
     0.00000000     0.00000000     0.00000000     0.00000000
     0.00241888     0.01843779     0.00000000     0.01843779
     0.00483777     0.03682136     0.00000000     0.03682136
     0.00725665     0.05509664     0.00000000     0.05509664
     0.00967554     0.07320991     0.00000000     0.07320991
     0.01209442     0.09110788     0.00000000     0.09110788
     0.01451331     0.10873794     0.00000000     0.10873794
     0.01693219     0.12604823     0.00000000     0.12604823
     0.01935107     0.14298785     0.00000000     0.14298785
     0.02176996     0.15950698     0.00000000     0.15950698
     0.02418884     0.17555705     0.00000000     0.17555705
     0.02660773     0.19109086     0.00000000     0.19109086
     0.02902661     0.20606273     0.00000000     0.20606273
     0.03144550     0.22042864     0.00000000     0.22042864
     0.03386438     0.23414632     0.00000000     0.23414632
     0.03628326     0.24717545     0.00000000     0.24717545
     0.03870215     0.25947772     0.00000000     0.25947772
     0.04112103     0.27101694     0.00000000     0.27101694
     0.04353992     0.28175917     0.00000000     0.28175917
     0.04595880     0.29167284     0.00000000     0.29167284
     0.04837769     0.30072879     0.00000000     0.30072879
     0.05079657     0.30890038     0.00000000     0.30890038
     0.05321546     0.31616359     0.00000000     0.31616359
     0.05563434     0.32249705     0.00000000     0.32249705
     0.05805322     0.32788215     0.00000000     0.32788215
     0.06047211     0.33230304     0.00000000     0.33230304
     0.06289099     0.33574674     0.00000000     0.33574674
     0.06530988     0.33820310     0.00000000     0.33820310
     0.06772876     0.33966490     0.00000000     0.33966490
     0.07014765     0.34012785     0.00000000     0.34012785
     0.07256653     0.33959059     0.00000000     0.33959059
     0.07498541     0.33805470     0.00000000     0.33805470
     0.07740430     0.33552469     0.00000000     0.33552469
     0.07982318     0.33200799     0.00000000     0.33200799
     0.08224207     0.32751497     0.00000000     0.32751497
     0.08466095     0.32205882     0.00000000     0.32205882
     0.08707984     0.31565559     0.00000000     0.31565559
     0.08949872     0.30832411     0.00000000     0.30832411
     0.09191760     0.30008594     0.00000000     0.30008594
     0.09433649     0.29096531     0.00000000     0.29096531
     0.09675537     0.28098904     0.00000000     0.28098904
     0.09917426     0.27018646     0.00000000     0.27018646
     0.10159314     0.25858935     0.00000000     0.25858935
     0.10401203     0.24623180     0.00000000     0.24623180
     0.10643091     0.23315016     0.00000000     0.23315016
     0.10884979     0.21938289     0.00000000     0.21938289
     0.11126868     0.20497049     0.00000000     0.20497049
     0.11368756     0.18995532     0.00000000     0.18995532
     0.11610645     0.17438156     0.00000000     0.17438156
     0.11852533     0.15829499     0.00000000     0.15829499
     0.12094422     0.14174292     0.00000000     0.14174292
     0.12336310     0.12477403     0.00000000     0.12477403
     0.12578198     0.10743821     0.00000000     0.10743821
     0.12820087     0.08978646     0.00000000     0.08978646
     0.13061975     0.07187066     0.00000000     0.07187066
     0.13303864     0.05374352     0.00000000     0.05374352
     0.13545752     0.03545833     0.00000000     0.03545833
     0.13787641     0.01706888     0.00000000     0.01706888
     0.14029529    -0.00137078    -0.00000000    -0.00137078
     0.14271418    -0.01980640    -0.00000000    -0.01980640
     0.14513306    -0.03818378    -0.00000000    -0.03818378
     0.14755194    -0.05644887    -0.00000000    -0.05644887
     0.14997083    -0.07454796    -0.00000000    -0.07454796
     0.15238971    -0.09242783    -0.00000000    -0.09242783
     0.15480860    -0.11003589    -0.00000000    -0.11003589
     0.15722748    -0.12732038    -0.00000000    -0.12732038
     0.15964637    -0.14423045    -0.00000000    -0.14423045
     0.16206525    -0.16071638    -0.00000000    -0.16071638
     0.16448413    -0.17672970    -0.00000000    -0.17672970
     0.16690302    -0.19222330    -0.00000000    -0.19222330
     0.16932190    -0.20715164    -0.00000000    -0.20715164
     0.17174079    -0.22147080    -0.00000000    -0.22147080
     0.17415967    -0.23513868    -0.00000000    -0.23513868
     0.17657856    -0.24811509    -0.00000000    -0.24811509
     0.17899744    -0.26036187    -0.00000000    -0.26036187
     0.18141632    -0.27184300    -0.00000000    -0.27184300
     0.18383521    -0.28252473    -0.00000000    -0.28252473
     0.18625409    -0.29237563    -0.00000000    -0.29237563
     0.18867298    -0.30136674    -0.00000000    -0.30136674
     0.19109186    -0.30947163    -0.00000000    -0.30947163
     0.19351075    -0.31666645    -0.00000000    -0.31666645
     0.19592963    -0.32293005    -0.00000000    -0.32293005
     0.19834851    -0.32824401    -0.00000000    -0.32824401
     0.20076740    -0.33259270    -0.00000000    -0.33259270
     0.20318628    -0.33596333    -0.00000000    -0.33596333
     0.20560517    -0.33834600    -0.00000000    -0.33834600
     0.20802405    -0.33973369    -0.00000000    -0.33973369
     0.21044294    -0.34012233     0.00000000    -0.34012233
     0.21286182    -0.33951077     0.00000000    -0.33951077
     0.21528071    -0.33790081     0.00000000    -0.33790081
     0.21769959    -0.33529719     0.00000000    -0.33529719
     0.22011847    -0.33170755     0.00000000    -0.33170755
     0.22253736    -0.32714247     0.00000000    -0.32714247
     0.22495624    -0.32161535     0.00000000    -0.32161535
     0.22737513    -0.31514246     0.00000000    -0.31514246
     0.22979401    -0.30774283     0.00000000    -0.30774283
     0.23221290    -0.29943823     0.00000000    -0.29943823
     0.23463178    -0.29025306     0.00000000    -0.29025306
     0.23705066    -0.28021435     0.00000000    -0.28021435
     0.23946955    -0.26935160     0.00000000    -0.26935160
     0.24188843    -0.25769678     0.00000000    -0.25769678
     0.24430732    -0.24528415     0.00000000    -0.24528415
     0.24672620    -0.23215021     0.00000000    -0.23215021
     0.24914509    -0.21833359     0.00000000    -0.21833359
     0.25156397    -0.20387491     0.00000000    -0.20387491
     0.25398285    -0.18881670     0.00000000    -0.18881670
     0.25640174    -0.17320323     0.00000000    -0.17320323
     0.25882062    -0.15708042     0.00000000    -0.15708042
     0.26123951    -0.14049569     0.00000000    -0.14049569
     0.26365839    -0.12349780     0.00000000    -0.12349780
     0.26607728    -0.10613675     0.00000000    -0.10613675
     0.26849616    -0.08846357     0.00000000    -0.08846357
     0.27091504    -0.07053025     0.00000000    -0.07053025
     0.27333393    -0.05238953     0.00000000    -0.05238953
     0.27575281    -0.03409474     0.00000000    -0.03409474
     0.27817170    -0.01569969     0.00000000    -0.01569969
     0.28059058     0.00274153     0.00000000     0.00274153
     0.28300947     0.02117469     0.00000000     0.02117469
     0.28542835     0.03954558     0.00000000     0.03954558
     0.28784723     0.05780018     0.00000000     0.05780018
     0.29026612     0.07588480     0.00000000     0.07588480
     0.29268500     0.09374627     0.00000000     0.09374627
     0.29510389     0.11133206     0.00000000     0.11133206
     0.29752277     0.12859046     0.00000000     0.12859046
     0.29994166     0.14547071     0.00000000     0.14547071
     0.30236054     0.16192317     0.00000000     0.16192317
     0.30477943     0.17789947     0.00000000     0.17789947
     0.30719831     0.19335262     0.00000000     0.19335262
     0.30961719     0.20823717     0.00000000     0.20823717
     0.31203608     0.22250936     0.00000000     0.22250936
     0.31445496     0.23612722     0.00000000     0.23612722
     0.31687385     0.24905070     0.00000000     0.24905070
     0.31929273     0.26124180     0.00000000     0.26124180
     0.32171162     0.27266466     0.00000000     0.27266466
     0.32413050     0.28328569     0.00000000     0.28328569
     0.32654938     0.29307367     0.00000000     0.29307367
     0.32896827     0.30199981     0.00000000     0.30199981
     0.33138715     0.31003785     0.00000000     0.31003785
     0.33380604     0.31716417     0.00000000     0.31716417
     0.33622492     0.32335780     0.00000000     0.32335780
     0.33864381     0.32860053     0.00000000     0.32860053
     0.34106269     0.33287695     0.00000000     0.33287695
     0.34348157     0.33617447     0.00000000     0.33617447
     0.34590046     0.33848341     0.00000000     0.33848341
     0.34831934     0.33979697     0.00000000     0.33979697
     0.35073823     0.34011128     0.00000000     0.34011128
     0.35315711     0.33942543     0.00000000     0.33942543
     0.35557600     0.33774143     0.00000000     0.33774143
     0.35799488     0.33506424     0.00000000     0.33506424
     0.36041376     0.33140172     0.00000000     0.33140172
     0.36283265     0.32676465     0.00000000     0.32676465
     0.36525153     0.32116666     0.00000000     0.32116666
     0.36767042     0.31462422     0.00000000     0.31462422
     0.37008930     0.30715656     0.00000000     0.30715656
     0.37250819     0.29878565     0.00000000     0.29878565
     0.37492707     0.28953609     0.00000000     0.28953609
     0.37734595     0.27943510     0.00000000     0.27943510
     0.37976484     0.26851237     0.00000000     0.26851237
     0.38218372     0.25680003     0.00000000     0.25680003
     0.38460261     0.24433251     0.00000000     0.24433251
     0.38702149     0.23114649     0.00000000     0.23114649
     0.38944038     0.21728073     0.00000000     0.21728073
     0.39185926     0.20277602     0.00000000     0.20277602
     0.39427815     0.18767500     0.00000000     0.18767500
     0.39669703     0.17202209     0.00000000     0.17202209
     0.39911591     0.15586331     0.00000000     0.15586331
     0.40153480     0.13924618     0.00000000     0.13924618
     0.40395368     0.12221957     0.00000000     0.12221957
     0.40637257     0.10483355     0.00000000     0.10483355
     0.40879145     0.08713925     0.00000000     0.08713925
     0.41121034     0.06918870     0.00000000     0.06918870
     0.41362922     0.05103468     0.00000000     0.05103468
     0.41604810     0.03273059     0.00000000     0.03273059
     0.41846699     0.01433024     0.00000000     0.01433024
     0.42088587    -0.00411225    -0.00000000    -0.00411225
     0.42330476    -0.02254264    -0.00000000    -0.02254264
     0.42572364    -0.04090674    -0.00000000    -0.04090674
     0.42814253    -0.05915055    -0.00000000    -0.05915055
     0.43056141    -0.07722041    -0.00000000    -0.07722041
     0.43298029    -0.09506320    -0.00000000    -0.09506320
     0.43539918    -0.11262642    -0.00000000    -0.11262642
     0.43781806    -0.12985845    -0.00000000    -0.12985845
     0.44023695    -0.14670861    -0.00000000    -0.14670861
     0.44265583    -0.16312734    -0.00000000    -0.16312734
     0.44507472    -0.17906635    -0.00000000    -0.17906635
     0.44749360    -0.19447879    -0.00000000    -0.19447879
     0.44991248    -0.20931933    -0.00000000    -0.20931933
     0.45233137    -0.22354432    -0.00000000    -0.22354432
     0.45475025    -0.23711193    -0.00000000    -0.23711193
     0.45716914    -0.24998226    -0.00000000    -0.24998226
     0.45958802    -0.26211748    -0.00000000    -0.26211748
     0.46200691    -0.27348188    -0.00000000    -0.27348188
     0.46442579    -0.28404206    -0.00000000    -0.28404206
     0.46684468    -0.29376695    -0.00000000    -0.29376695
     0.46926356    -0.30262796    -0.00000000    -0.30262796
     0.47168244    -0.31059904    -0.00000000    -0.31059904
     0.47410133    -0.31765673    -0.00000000    -0.31765673
     0.47652021    -0.32378030    -0.00000000    -0.32378030
     0.47893910    -0.32895172    -0.00000000    -0.32895172
     0.48135798    -0.33315579    -0.00000000    -0.33315579
     0.48377687    -0.33638015    -0.00000000    -0.33638015
     0.48619575    -0.33861532    -0.00000000    -0.33861532
     0.48861463    -0.33985472    -0.00000000    -0.33985472
     0.49103352    -0.34009471     0.00000000    -0.34009471
     0.49345240    -0.33933458     0.00000000    -0.33933458
     0.49587129    -0.33757657     0.00000000    -0.33757657
     0.49829017    -0.33482585     0.00000000    -0.33482585
     0.50070906    -0.33109051     0.00000000    -0.33109051
     0.50312794    -0.32638153     0.00000000    -0.32638153
     0.50554682    -0.32071276     0.00000000    -0.32071276
     0.50796571    -0.31410087     0.00000000    -0.31410087
     0.51038459    -0.30656530     0.00000000    -0.30656530
     0.51280348    -0.29812821     0.00000000    -0.29812821
     0.51522236    -0.28881442     0.00000000    -0.28881442
     0.51764125    -0.27865131     0.00000000    -0.27865131
     0.52006013    -0.26766877     0.00000000    -0.26766877
     0.52247901    -0.25589910     0.00000000    -0.25589910
     0.52489790    -0.24337691     0.00000000    -0.24337691
     0.52731678    -0.23013901     0.00000000    -0.23013901
     0.52973567    -0.21622435     0.00000000    -0.21622435
     0.53215455    -0.20167384     0.00000000    -0.20167384
     0.53457344    -0.18653026     0.00000000    -0.18653026
     0.53699232    -0.17083815     0.00000000    -0.17083815
     0.53941120    -0.15464366     0.00000000    -0.15464366
     0.54183009    -0.13799441     0.00000000    -0.13799441
     0.54424897    -0.12093936     0.00000000    -0.12093936
     0.54666786    -0.10352866     0.00000000    -0.10352866
     0.54908674    -0.08581352     0.00000000    -0.08581352
     0.55150563    -0.06784602     0.00000000    -0.06784602
     0.55392451    -0.04967901     0.00000000    -0.04967901
     0.55634340    -0.03136590     0.00000000    -0.03136590
     0.55876228    -0.01296056     0.00000000    -0.01296056
     0.56118116     0.00548289     0.00000000     0.00548289
     0.56360005     0.02391022     0.00000000     0.02391022
     0.56601893     0.04226724     0.00000000     0.04226724
     0.56843782     0.06049996     0.00000000     0.06049996
     0.57085670     0.07855477     0.00000000     0.07855477
     0.57327559     0.09637857     0.00000000     0.09637857
     0.57569447     0.11391896     0.00000000     0.11391896
     0.57811335     0.13112434     0.00000000     0.13112434
     0.58053224     0.14794412     0.00000000     0.14794412
     0.58295112     0.16432885     0.00000000     0.16432885
     0.58537001     0.18023033     0.00000000     0.18023033
     0.58778889     0.19560181     0.00000000     0.19560181
     0.59020778     0.21039808     0.00000000     0.21039808
     0.59262666     0.22457564     0.00000000     0.22457564
     0.59504554     0.23809278     0.00000000     0.23809278
     0.59746443     0.25090977     0.00000000     0.25090977
     0.59988331     0.26298890     0.00000000     0.26298890
     0.60230220     0.27429467     0.00000000     0.27429467
     0.60472108     0.28479381     0.00000000     0.28479381
     0.60713997     0.29445546     0.00000000     0.29445546
     0.60955885     0.30325121     0.00000000     0.30325121
     0.61197773     0.31115518     0.00000000     0.31115518
     0.61439662     0.31814414     0.00000000     0.31814414
     0.61681550     0.32419754     0.00000000     0.32419754
     0.61923439     0.32929756     0.00000000     0.32929756
     0.62165327     0.33342922     0.00000000     0.33342922
     0.62407216     0.33658037     0.00000000     0.33658037
     0.62649104     0.33874173     0.00000000     0.33874173
     0.62890992     0.33990695     0.00000000     0.33990695
     0.63132881     0.34007261     0.00000000     0.34007261
     0.63374769     0.33923822     0.00000000     0.33923822
     0.63616658     0.33740623     0.00000000     0.33740623
     0.63858546     0.33458203     0.00000000     0.33458203
     0.64100435     0.33077392     0.00000000     0.33077392
     0.64342323     0.32599311     0.00000000     0.32599311
     0.64584212     0.32025364     0.00000000     0.32025364
     0.64826100     0.31357241     0.00000000     0.31357241
     0.65067988     0.30596906     0.00000000     0.30596906
     0.65309877     0.29746594     0.00000000     0.29746594
     0.65551765     0.28808806     0.00000000     0.28808806
     0.65793654     0.27786300     0.00000000     0.27786300
     0.66035542     0.26682083     0.00000000     0.26682083
     0.66277431     0.25499402     0.00000000     0.25499402
     0.66519319     0.24241735     0.00000000     0.24241735
     0.66761207     0.22912780     0.00000000     0.22912780
     0.67003096     0.21516446     0.00000000     0.21516446
     0.67244984     0.20056838     0.00000000     0.20056838
     0.67486873     0.18538249     0.00000000     0.18538249
     0.67728761     0.16965144     0.00000000     0.16965144
     0.67970650     0.15342150     0.00000000     0.15342150
     0.68212538     0.13674040     0.00000000     0.13674040
     0.68454426     0.11965718     0.00000000     0.11965718
     0.68696315     0.10222208     0.00000000     0.10222208
     0.68938203     0.08448639     0.00000000     0.08448639
     0.69180092     0.06650224     0.00000000     0.06650224
     0.69421980     0.04832253     0.00000000     0.04832253
     0.69663869     0.03000071     0.00000000     0.03000071
     0.69905757     0.01159068     0.00000000     0.01159068
     0.70147645    -0.00685345    -0.00000000    -0.00685345
     0.70389534    -0.02527741    -0.00000000    -0.02527741
     0.70631422    -0.04362705    -0.00000000    -0.04362705
     0.70873311    -0.06184839    -0.00000000    -0.06184839
     0.71115199    -0.07988785    -0.00000000    -0.07988785
     0.71357088    -0.09769239    -0.00000000    -0.09769239
     0.71598976    -0.11520964    -0.00000000    -0.11520964
     0.71840864    -0.13238809    -0.00000000    -0.13238809
     0.72082753    -0.14917723    -0.00000000    -0.14917723
     0.72324641    -0.16552769    -0.00000000    -0.16552769
     0.72566530    -0.18139138    -0.00000000    -0.18139138
     0.72808418    -0.19672165    -0.00000000    -0.19672165
     0.73050307    -0.21147342    -0.00000000    -0.21147342
     0.73292195    -0.22560331    -0.00000000    -0.22560331
     0.73534084    -0.23906977    -0.00000000    -0.23906977
     0.73775972    -0.25183319    -0.00000000    -0.25183319
     0.74017860    -0.26385605    -0.00000000    -0.26385605
     0.74259749    -0.27510299    -0.00000000    -0.27510299
     0.74501637    -0.28554094    -0.00000000    -0.28554094
     0.74743526    -0.29513919    -0.00000000    -0.29513919
     0.74985414    -0.30386952    -0.00000000    -0.30386952
     0.75227303    -0.31170627    -0.00000000    -0.31170627
     0.75469191    -0.31862638    -0.00000000    -0.31862638
     0.75711079    -0.32460951    -0.00000000    -0.32460951
     0.75952968    -0.32963806    -0.00000000    -0.32963806
     0.76194856    -0.33369724    -0.00000000    -0.33369724
     0.76436745    -0.33677511    -0.00000000    -0.33677511
     0.76678633    -0.33886264    -0.00000000    -0.33886264
     0.76920522    -0.33995366    -0.00000000    -0.33995366
     0.77162410    -0.34004499     0.00000000    -0.34004499
     0.77404298    -0.33913635     0.00000000    -0.33913635
     0.77646187    -0.33723040     0.00000000    -0.33723040
     0.77888075    -0.33433277     0.00000000    -0.33433277
     0.78129964    -0.33045196     0.00000000    -0.33045196
     0.78371852    -0.32559939     0.00000000    -0.32559939
     0.78613741    -0.31978933     0.00000000    -0.31978933
