#           time (fs)    |     mu_x (e.angstrom)   |     mu_y (e.angstrom)   |     mu_z (e.angstrom)   |
        0.000000000000000       -0.000000000000000       -0.000000000000000        0.000000000000000
        0.002418884326505        0.000000000536691        0.000000002843788        0.000046661321983
        0.004837768653010        0.000000002145961        0.000000011372025        0.000093300970684
        0.007256652979515        0.000000004801833        0.000000025445367        0.000139200266570
        0.009675537306020        0.000000009168971        0.000000048588850        0.000199377196042
        0.012094421632525        0.000000014830382        0.000000078588785        0.000258022290724
        0.014513305959030        0.000000023787192        0.000000126054737        0.000344927035027
        0.016932190285535        0.000000034543357        0.000000183052553        0.000429399819878
        0.019351074612040        0.000000051063449        0.000000270598884        0.000555489386829
        0.021769958938545        0.000000070113602        0.000000371548081        0.000678071358794
        0.024188843265050        0.000000098184239        0.000000520304224        0.000854707520005
        0.026607727591555        0.000000129695822        0.000000687288878        0.001026523678530
        0.029026611918060        0.000000174143539        0.000000922831476        0.001263635257610
        0.031445496244565        0.000000223065660        0.000001182077452        0.001494323884154
        0.033864380571070        0.000000289340771        0.000001533288026        0.001800100216367
        0.036283264897575        0.000000361178467        0.000001913966237        0.002097515540590
        0.038702149224080        0.000000455104796        0.000002411704305        0.002478137663449
        0.041121033550585        0.000000555660763        0.000002944561297        0.002848091769585
        0.043539917877090        0.000000683157961        0.000003620191873        0.003307507167126
        0.045958802203595        0.000000818249408        0.000004336048174        0.003753556723801
        0.048377686530100        0.000000985036064        0.000005219867132        0.004293302600120
        0.050796570856605        0.000001160195087        0.000006148027997        0.004816585120720
        0.053215455183110        0.000001371481486        0.000007267632229        0.005435664235778
        0.055634339509615        0.000001591647972        0.000008434258494        0.006034787609979
        0.058053223836120        0.000001851827755        0.000009812910132        0.006729599689560
        0.060472108162625        0.000002121044128        0.000011239398795        0.007400587687385
        0.062890992489130        0.000002433394315        0.000012894433814        0.008164918338423
        0.065309876815635        0.000002754511567        0.000014595858649        0.008901213695790
        0.067728761142140        0.000003120910334        0.000016537190056        0.009726281638385
        0.070147645468645        0.000003495314640        0.000018520851976        0.010518807208350
        0.072566529795150        0.000003915985987        0.000020749616340        0.011393369498350
        0.074985414121655        0.000004343354862        0.000023013751406        0.012230646816963
        0.077404298448160        0.000004816648781        0.000025521144861        0.013141160599985
        0.079823182774665        0.000005294745177        0.000028053834790        0.014009484091973
        0.082242067101170        0.000005816961238        0.000030820180813        0.014940322323228
        0.084660951427675        0.000006341473188        0.000033598506673        0.015823986282260
        0.087079835754180        0.000006906734564        0.000036592593023        0.016757703787754
        0.089498720080685        0.000007471167035        0.000039582067526        0.017639278229741
        0.091917604407190        0.000008071350903        0.000042760783840        0.018556923493323
        0.094336488733695        0.000008666975414        0.000045915091503        0.019417574018148
        0.096755373060200        0.000009291704449        0.000049223392283        0.020299041173502
        0.099174257386705        0.000009907570721        0.000052484459696        0.021118887098191
        0.101593141713210        0.000010544269059        0.000055855669944        0.021943301801101
        0.104012026039715        0.000011167281579        0.000059154080777        0.022701806060514
        0.106430910366220        0.000011801297138        0.000062510553538        0.023447938227934
        0.108849794692725        0.000012416358057        0.000065766314753        0.024124321890122
        0.111268679019230        0.000013031151583        0.000069020441415        0.024771017729533
        0.113687563345735        0.000013621369750        0.000072144098705        0.025344691451818
        0.116106447672240        0.000014198769330        0.000075199664319        0.025871316775338
        0.118525331998745        0.000014745733702        0.000078093756220        0.026322321141418
        0.120944216325250        0.000015266251869        0.000080847623476        0.026709207670005
        0.123363100651755        0.000015750365853        0.000083408455011        0.027018654103163
        0.125781984978260        0.000016193574750        0.000085752552071        0.027247540320730
        0.128200869304765        0.000016594446444        0.000087872260490        0.027398044166644
        0.130619753631270        0.000016939404937        0.000089695839744        0.027452502283726
        0.133038637957775        0.000017236286639        0.000091264716953        0.027428599699756
        0.135457522284280        0.000017462011749        0.000092456844184        0.027294440431496
        0.137876406610785        0.000017634280629        0.000093365873139        0.027082980907203
        0.140295290937290        0.000017720254212        0.000093818099650        0.026748628059138
        0.142714175263795        0.000017747924698        0.000093961655319        0.026339134723065
        0.145133059590300        0.000017674625112        0.000093570819510        0.025795962007204
        0.147551943916805        0.000017538882346        0.000092849479315        0.025180952343930
        0.149970828243310        0.000017288329746        0.000091520579131        0.024423575411773
        0.152389712569815        0.000016972072525        0.000089843983062        0.023598835615292
        0.154808596896320        0.000016528375667        0.000087493056734        0.022625352986941
        0.157227481222825        0.000016016756573        0.000084782753803        0.021590159904041
        0.159646365549330        0.000015366648434        0.000081339703641        0.020402337284272
        0.162065249875835        0.000014647598428        0.000077531919098        0.019159622745085
        0.164484134202340        0.000013780947760        0.000072943211658        0.017763016137058
        0.166903018528845        0.000012845672403        0.000067991468472        0.016319469417185
        0.169321902855350        0.000011755958380        0.000062222644484        0.014723483458669
        0.171740787181855        0.000010599393034        0.000056100173128        0.013089588653806
        0.174159671508360        0.000009284130560        0.000049138102006        0.011307467693322
        0.176578555834865        0.000007905342416        0.000041839974543        0.009497473896149
        0.178997440161370        0.000006366446356        0.000033694791222        0.007546224478974
        0.181416324487875        0.000004768971944        0.000025239719107        0.005578047810035
        0.183835208814380        0.000003013049512        0.000015946385290        0.003478292436089
        0.186254093140885        0.000001205157395        0.000006378125089        0.001373350174498
        0.188672977467390       -0.000000756280844       -0.000004002437290       -0.000850886600116
        0.191091861793895       -0.000002761411179       -0.000014614119889       -0.003067908336464
        0.193510746120400       -0.000004911829790       -0.000025994368238       -0.005389479178084
        0.195929630446905       -0.000007096020351       -0.000037553218403       -0.007690921562560
        0.198348514773410       -0.000009413833489       -0.000049818839168       -0.010079897566570
        0.200767399099915       -0.000011753917375       -0.000062202150697       -0.012435485209557
        0.203186283426420       -0.000014212563988       -0.000075212447167       -0.014859554457929
        0.205605167752925       -0.000016680496269       -0.000088271642482       -0.017236806677717
        0.208024052079430       -0.000019248618991       -0.000101860478740       -0.019661724517926
        0.210442936405935       -0.000021811691173       -0.000115422245385       -0.022026415829097
        0.212861820732440       -0.000024453419981       -0.000129399553873       -0.024416500284166
        0.215280705058945       -0.000027074578485       -0.000143267541109       -0.026733163275880
        0.217699589385450       -0.000029749918314       -0.000157421390274       -0.029051828143203
        0.220118473711955       -0.000032388185516       -0.000171378458303       -0.031284291112681
        0.222537358038460       -0.000035053505121       -0.000185477665589       -0.033494608579749
        0.224956242364965       -0.000037664499638       -0.000199288668793       -0.035606559604738
        0.227375126691470       -0.000040273117124       -0.000213085933018       -0.037671843613914
        0.229794011017975       -0.000042809668140       -0.000226501007454       -0.039627412201709
        0.232212895344480       -0.000045312526715       -0.000239736523608       -0.041511813341636
        0.234631779670985       -0.000047725375329       -0.000252494838161       -0.043276160388210
        0.237050663997490       -0.000050071801005       -0.000264900347044       -0.044945262781542
        0.239469548323995       -0.000052310379727       -0.000276734267292       -0.046485169316812
        0.241888432650500       -0.000054448910918       -0.000288037482389       -0.047906579815460
        0.244307316977005       -0.000056462190695       -0.000298677086470       -0.049191024901738
        0.246726201303510       -0.000058341467918       -0.000308606431237       -0.050334944892367
        0.249145085630015       -0.000060078860346       -0.000317784308159       -0.051335663082896
        0.251563969956520       -0.000061648562574       -0.000326073888585       -0.052175433346174
        0.253982854283025       -0.000063060863334       -0.000333530141513       -0.052867442298095
        0.256401738609530       -0.000064272676027       -0.000339924871655       -0.053380051652883
        0.258820622936035       -0.000065313034080       -0.000345412242004       -0.053742140821632
        0.261239507262540       -0.000066121632525       -0.000349673034270       -0.053908689716572
        0.263658391589045       -0.000066746528309       -0.000352962057003       -0.053923861533128
        0.266077275915550       -0.000067110558736       -0.000354870984453       -0.053729972318619
        0.268496160242055       -0.000067280773495       -0.000355755081037       -0.053385827862680
        0.270915044568560       -0.000067163813542       -0.000355120415979       -0.052821994180460
        0.273333928895065       -0.000066845371172       -0.000353420829038       -0.052111056105593
        0.275752813221570       -0.000066216850681       -0.000350081860860       -0.051172924663981
        0.278171697548075       -0.000065381913023       -0.000345652333854       -0.050092890998059
        0.280590581874580       -0.000064217975995       -0.000339483869406       -0.048781469950950
        0.283009466201085       -0.000062845672497       -0.000332214975666       -0.047335393377471
        0.285428350527590       -0.000061129961262       -0.000323131427680       -0.045657182580960
        0.287847234854095       -0.000059207134365       -0.000312954455967       -0.043853570891503
        0.290266119180600       -0.000056931477731       -0.000300913428970       -0.041820610464110
        0.292685003507105       -0.000054453326211       -0.000287803737344       -0.039673445047633
        0.295103887833610       -0.000051618314567       -0.000272809026334       -0.037303279890358
        0.297522772160115       -0.000048588918459       -0.000256788782566       -0.034831950372404
        0.299941656486620       -0.000045204350408       -0.000238892707261       -0.032147509595997
        0.302360540813125       -0.000041637062923       -0.000220032942164       -0.029376664041960
        0.304779425139630       -0.000037722250132       -0.000199337948866       -0.026406055579973
        0.307198309466135       -0.000033639944206       -0.000177759858728       -0.023365367009604
        0.309617193792640       -0.000029223863553       -0.000154419332635       -0.020141589044337
        0.312036078119145       -0.000024659023197       -0.000130294778183       -0.016865440346215
        0.314454962445650       -0.000019780308038       -0.000104513021118       -0.013426012516337
        0.316873846772155       -0.000014774957453       -0.000078064183016       -0.009953103176624
        0.319292731098660       -0.000009481722730       -0.000050095524857       -0.006339621845189
        0.321711615425165       -0.000004087189083       -0.000021593689359       -0.002712501189798
        0.324130499751670        0.000001563311978        0.000008259284308        0.001029875695049
        0.326549384078175        0.000007286803204        0.000038495821462        0.004765342825938
        0.328968268404680        0.000013228690043        0.000069884928030        0.008588474571493
        0.331387152731185        0.000019212585249        0.000101493836394        0.012383702665418
        0.333806037057690        0.000025372024855        0.000134028828563        0.016237100597759
        0.336224921384195        0.000031540173323        0.000166607578045        0.020041430753057
        0.338643805710700        0.000037836212523        0.000199860521659        0.023872940172361
        0.341062690037205        0.000044105750752        0.000232971044182        0.027634330847942
        0.343481574363710        0.000050451296776        0.000266481498214        0.031390850628180
        0.345900458690215        0.000056733676192        0.000299655627252        0.035056602125819
        0.348319343016720        0.000063036613965        0.000332936567790        0.038684831741823
        0.350738227343225        0.000069238759735        0.000365682192537        0.042202334076625
        0.353157111669730        0.000075403192194        0.000398226608459        0.045649537327957
        0.355575995996235        0.000081428778799        0.000430034465633        0.048967030688995
        0.357994880322740        0.000087356374533        0.000461322540450        0.052181805037171
        0.360413764649245        0.000093107201865        0.000491673553951        0.055249141746940
        0.362832648975750        0.000098698632623        0.000521180336199        0.058182181992510
        0.365251533302255        0.000104076084625        0.000549553403229        0.060951578741821
        0.367670417628760        0.000109232533587        0.000576756856948        0.063556423740004
        0.370089301955265        0.000114139099915        0.000602636968963        0.065983192903288
        0.372508186281770        0.000118763820140        0.000627026286498        0.068216944149177
        0.374927070608275        0.000123104659812        0.000649912864618        0.070260193171165
        0.377345954934780        0.000127104560931        0.000670996916234        0.072084194374307
        0.379764839261285        0.000130789085640        0.000690412233706        0.073707482559082
        0.382183723587790        0.000134076325592        0.000707728022592        0.075087949768027
        0.384602607914295        0.000137019779122        0.000723225581619        0.076259892291067
        0.387021492240800        0.000139513336690        0.000736346568767        0.077168484716206
        0.389440376567305        0.000141638345878        0.000747519295737        0.077863294314144
        0.391859260893810        0.000143265548892        0.000756063457182        0.078277616726109
        0.394278145220315        0.000144503620761        0.000762551579023        0.078475574291981
        0.396697029546820        0.000145201604234        0.000766189057956        0.078379602736647
        0.399115913873325        0.000145494543459        0.000767687523245        0.078067448953659
        0.401534798199830        0.000145211611692        0.000766147741796        0.077451872515851
        0.403953682526335        0.000144512832455        0.000762413053309        0.076623113692420
        0.406372566852840        0.000143209699319        0.000755491153263        0.075485586149797
        0.408791451179345        0.000141485406004        0.000746347484001        0.074140708563054
        0.411210335505850        0.000139136288331        0.000733909972507        0.072486004988301
        0.413629219832355        0.000136366500451        0.000719254444822        0.070632593290568
        0.416048104158860        0.000132960040746        0.000701243930143        0.068472667970454
        0.418466988485365        0.000129139439023        0.000681050947432        0.066125424548784
        0.420885872811870        0.000124679435639        0.000657489860979        0.063479367976732
        0.423304757138375        0.000119818008360        0.000631814393373        0.060660031562074
        0.425723641464880        0.000114323933810        0.000602807607560        0.057553925707398
        0.428142525791385        0.000108447405362        0.000571787347032        0.054291088987001
        0.430561410117890        0.000101954696611        0.000537523613619        0.050757761527241
        0.432980294444395        0.000095104723502        0.000501379929734        0.047086588998680
        0.435399178770900        0.000087664831748        0.000462132080207        0.043165268697212
        0.437818063097405        0.000079898955277        0.000421169725111        0.039127117489962
        0.440236947423910        0.000071579146878        0.000377293592908        0.034862994383643
        0.442655831750415        0.000062970495871        0.000331899122849        0.030504942238242
        0.445074716076920        0.000053853400471        0.000283831166602        0.025948637742573
        0.447493600403425        0.000044490142006        0.000234470066898        0.021322923751543
        0.449912484729930        0.000034673048502        0.000182723693999        0.016529877167480
        0.452331369056435        0.000024657589084        0.000129936214644        0.011693262220434
        0.454750253382940        0.000014251494642        0.000075096824988        0.006723041412342
        0.457169137709445        0.000003699438806        0.000019492554610        0.001736096526015
        0.459588022035950       -0.000007172139451       -0.000037788655071       -0.003348358288308
        0.462006906362455       -0.000018133261868       -0.000095537428776       -0.008422026457547
        0.464425790688960       -0.000029335698770       -0.000154550839317       -0.013555215826211
        0.466844675015465       -0.000040567921503       -0.000213716914587       -0.018649792012570
        0.469263559341970       -0.000051957101857       -0.000273702957277       -0.023764516411823
        0.471682443668475       -0.000063313708549       -0.000333513061453       -0.028812845214793
