#     time (fs)  |  E_x (eV/ang)  | E_y (eV/ang) | E_z (eV/ang)
     0.00000000     0.00000000     0.00000000     0.51597197
     0.00241888     0.02605088     0.02605088     0.51564295
     0.00483777     0.05206853     0.05206853     0.51465630
     0.00725665     0.07801977     0.07801977     0.51301327
     0.00967554     0.10387151     0.10387151     0.51071597
     0.01209442     0.12959078     0.12959078     0.50776732
     0.01451331     0.15514478     0.15514478     0.50417109
     0.01693219     0.18050090     0.18050090     0.49993186
     0.01935107     0.20562683     0.20562683     0.49505504
     0.02176996     0.23049051     0.23049051     0.48954685
     0.02418884     0.25506023     0.25506023     0.48341431
     0.02660773     0.27930465     0.27930465     0.47666524
     0.02902661     0.30319287     0.30319287     0.46930825
     0.03144550     0.32669440     0.32669440     0.46135273
     0.03386438     0.34977928     0.34977928     0.45280882
     0.03628326     0.37241807     0.37241807     0.44368741
     0.03870215     0.39458189     0.39458189     0.43400014
     0.04112103     0.41624248     0.41624248     0.42375937
     0.04353992     0.43737221     0.43737221     0.41297816
     0.04595880     0.45794414     0.45794414     0.40167025
     0.04837769     0.47793202     0.47793202     0.38985006
     0.05079657     0.49731036     0.49731036     0.37753268
     0.05321546     0.51605446     0.51605446     0.36473380
     0.05563434     0.53414041     0.53414041     0.35146977
     0.05805322     0.55154513     0.55154513     0.33775748
     0.06047211     0.56824644     0.56824644     0.32361443
     0.06289099     0.58422303     0.58422303     0.30905865
     0.06530988     0.59945452     0.59945452     0.29410872
     0.06772876     0.61392150     0.61392150     0.27878369
     0.07014765     0.62760550     0.62760550     0.26310311
     0.07256653     0.64048909     0.64048909     0.24708698
     0.07498541     0.65255582     0.65255582     0.23075573
     0.07740430     0.66379031     0.66379031     0.21413018
     0.07982318     0.67417823     0.67417823     0.19723154
     0.08224207     0.68370633     0.68370633     0.18008136
     0.08466095     0.69236246     0.69236246     0.16270151
     0.08707984     0.70013558     0.70013558     0.14511416
     0.08949872     0.70701578     0.70701578     0.12734173
     0.09191760     0.71299428     0.71299428     0.10940690
     0.09433649     0.71806346     0.71806346     0.09133253
     0.09675537     0.72221685     0.72221685     0.07314169
     0.09917426     0.72544915     0.72544915     0.05485756
     0.10159314     0.72775625     0.72775625     0.03650347
     0.10401203     0.72913519     0.72913519     0.01810282
     0.10643091     0.72958423     0.72958423    -0.00032091
     0.10884979     0.72910279     0.72910279    -0.01874424
     0.11126868     0.72769148     0.72769148    -0.03714365
     0.11368756     0.72535210     0.72535210    -0.05549570
     0.11610645     0.72208764     0.72208764    -0.07377697
     0.11852533     0.71790226     0.71790226    -0.09196415
     0.12094422     0.71280130     0.71280130    -0.11003404
     0.12336310     0.70679126     0.70679126    -0.12796360
     0.12578198     0.69987980     0.69987980    -0.14572996
     0.12820087     0.69207575     0.69207575    -0.16331046
     0.13061975     0.68338906     0.68338906    -0.18068268
     0.13303864     0.67383080     0.67383080    -0.19782447
     0.13545752     0.66341317     0.66341317    -0.21471396
     0.13787641     0.65214944     0.65214944    -0.23132961
     0.14029529     0.64005400     0.64005400    -0.24765024
     0.14271418     0.62714225     0.62714225    -0.26365502
     0.14513306     0.61343067     0.61343067    -0.27932355
     0.14755194     0.59893675     0.59893675    -0.29463584
     0.14997083     0.58367897     0.58367897    -0.30957236
     0.15238971     0.56767680     0.56767680    -0.32411407
     0.15480860     0.55095063     0.55095063    -0.33824242
     0.15722748     0.53352180     0.53352180    -0.35193938
     0.15964637     0.51541254     0.51541254    -0.36518750
     0.16206525     0.49664594     0.49664594    -0.37796987
     0.16448413     0.47724595     0.47724595    -0.39027020
     0.16690302     0.45723729     0.45723729    -0.40207279
     0.16932190     0.43664549     0.43664549    -0.41336260
     0.17174079     0.41549681     0.41549681    -0.42412522
     0.17415967     0.39381823     0.39381823    -0.43434693
     0.17657856     0.37163739     0.37163739    -0.44401469
     0.17899744     0.34898257     0.34898257    -0.45311617
     0.18141632     0.32588268     0.32588268    -0.46163977
     0.18383521     0.30236717     0.30236717    -0.46957461
     0.18625409     0.27846604     0.27846604    -0.47691058
     0.18867298     0.25420976     0.25420976    -0.48363831
     0.19109186     0.22962927     0.22962927    -0.48974923
     0.19351075     0.20475593     0.20475593    -0.49523555
     0.19592963     0.17962144     0.17962144    -0.50009027
     0.19834851     0.15425788     0.15425788    -0.50430719
     0.20076740     0.12869758     0.12869758    -0.50788093
     0.20318628     0.10297314     0.10297314    -0.51080695
     0.20560517     0.07711738     0.07711738    -0.51308151
     0.20802405     0.05116326     0.05116326    -0.51470170
     0.21044294     0.02514390     0.02514390    -0.51566547
     0.21286182    -0.00090754    -0.00090754    -0.51597157
     0.21528071    -0.02695781    -0.02695781    -0.51561963
     0.21769959    -0.05297371    -0.05297371    -0.51461009
     0.22011847    -0.07892204    -0.07892204    -0.51294424
     0.22253736    -0.10476973    -0.10476973    -0.51062420
     0.22495624    -0.13048379    -0.13048379    -0.50765293
     0.22737513    -0.15603144    -0.15603144    -0.50403422
     0.22979401    -0.18138009    -0.18138009    -0.49977269
     0.23221290    -0.20649742    -0.20649742    -0.49487377
     0.23463178    -0.23135139    -0.23135139    -0.48934370
     0.23705066    -0.25591030    -0.25591030    -0.48318955
     0.23946955    -0.28014284    -0.28014284    -0.47641916
     0.24188843    -0.30401809    -0.30401809    -0.46904117
     0.24430732    -0.32750562    -0.32750562    -0.46106498
     0.24672620    -0.35057545    -0.35057545    -0.45250076
     0.24914509    -0.37319818    -0.37319818    -0.44335945
     0.25156397    -0.39534495    -0.39534495    -0.43365269
     0.25398285    -0.41698750    -0.41698750    -0.42339287
     0.25640174    -0.43809826    -0.43809826    -0.41259308
     0.25882062    -0.45865027    -0.45865027    -0.40126708
     0.26123951    -0.47861735    -0.47861735    -0.38942932
     0.26365839    -0.49797402    -0.49797402    -0.37709490
     0.26607728    -0.51669559    -0.51669559    -0.36427954
     0.26849616    -0.53475819    -0.53475819    -0.35099961
     0.27091504    -0.55213878    -0.55213878    -0.33727202
     0.27333393    -0.56881520    -0.56881520    -0.32311429
     0.27575281    -0.58476617    -0.58476617    -0.30854447
     0.27817170    -0.59997136    -0.59997136    -0.29358115
     0.28059058    -0.61441137    -0.61441137    -0.27824340
     0.28300947    -0.62806779    -0.62806779    -0.26255080
     0.28542835    -0.64092319    -0.64092319    -0.24652335
     0.28784723    -0.65296119    -0.65296119    -0.23018149
     0.29026612    -0.66416643    -0.66416643    -0.21354608
     0.29268500    -0.67452462    -0.67452462    -0.19663831
     0.29510389    -0.68402255    -0.68402255    -0.17947976
     0.29752277    -0.69264810    -0.69264810    -0.16209231
     0.29994166    -0.70039028    -0.70039028    -0.14449813
     0.30236054    -0.70723921    -0.70723921    -0.12671966
     0.30477943    -0.71318616    -0.71318616    -0.10877959
     0.30719831    -0.71822355    -0.71822355    -0.09070078
     0.30961719    -0.72234494    -0.72234494    -0.07250629
     0.31203608    -0.72554508    -0.72554508    -0.05421933
     0.31445496    -0.72781989    -0.72781989    -0.03586323
     0.31687385    -0.72916647    -0.72916647    -0.01746138
     0.31929273    -0.72958310    -0.72958310     0.00096273
     0.32171162    -0.72906925    -0.72906925     0.01938562
     0.32413050    -0.72762558    -0.72762558     0.03778378
     0.32654938    -0.72525393    -0.72525393     0.05613376
     0.32896827    -0.72195732    -0.72195732     0.07441214
     0.33138715    -0.71773995    -0.71773995     0.09259563
     0.33380604    -0.71260721    -0.71260721     0.11066102
     0.33622492    -0.70656563    -0.70656563     0.12858527
     0.33864381    -0.69962294    -0.69962294     0.14634554
     0.34106269    -0.69178797    -0.69178797     0.16391916
     0.34348157    -0.68307073    -0.68307073     0.18128373
     0.34590046    -0.67348233    -0.67348233     0.19841709
     0.34831934    -0.66303500    -0.66303500     0.21529741
     0.35073823    -0.65174206    -0.65174206     0.23190314
     0.35315711    -0.63961791    -0.63961791     0.24821311
     0.35557600    -0.62667803    -0.62667803     0.26420652
     0.35799488    -0.61293890    -0.61293890     0.27986297
     0.36041376    -0.59841806    -0.59841806     0.29516250
     0.36283265    -0.58313402    -0.58313402     0.31008559
     0.36525153    -0.56710628    -0.56710628     0.32461321
     0.36767042    -0.55035527    -0.55035527     0.33872683
     0.37008930    -0.53290236    -0.53290236     0.35240845
     0.37250819    -0.51476982    -0.51476982     0.36564063
     0.37492707    -0.49598075    -0.49598075     0.37840649
     0.37734595    -0.47655913    -0.47655913     0.39068974
     0.37976484    -0.45652973    -0.45652973     0.40247472
     0.38218372    -0.43591810    -0.43591810     0.41374640
     0.38460261    -0.41475050    -0.41475050     0.42449041
     0.38702149    -0.39305396    -0.39305396     0.43469304
     0.38944038    -0.37085613    -0.37085613     0.44434128
     0.39185926    -0.34818532    -0.34818532     0.45342282
     0.39427815    -0.32507046    -0.32507046     0.46192609
     0.39669703    -0.30154101    -0.30154101     0.46984024
     0.39911591    -0.27762699    -0.27762699     0.47715518
     0.40153480    -0.25335890    -0.25335890     0.48386157
     0.40395368    -0.22876768    -0.22876768     0.48995086
     0.40637257    -0.20388470    -0.20388470     0.49541529
     0.40879145    -0.17874170    -0.17874170     0.50024789
     0.41121034    -0.15337074    -0.15337074     0.50444250
     0.41362922    -0.12780417    -0.12780417     0.50799376
     0.41604810    -0.10207461    -0.10207461     0.51089714
     0.41846699    -0.07621487    -0.07621487     0.51314895
     0.42088587    -0.05025792    -0.05025792     0.51474631
     0.42330476    -0.02423688    -0.02423688     0.51568719
     0.42572364     0.00181507     0.00181507     0.51597038
     0.42814253     0.02786471     0.02786471     0.51559552
     0.43056141     0.05387881     0.05387881     0.51456309
     0.43298029     0.07982419     0.07982419     0.51287441
     0.43539918     0.10566777     0.10566777     0.51053164
     0.43781806     0.13137659     0.13137659     0.50753775
     0.44023695     0.15691786     0.15691786     0.50389657
     0.44265583     0.18225899     0.18225899     0.49961274
     0.44507472     0.20736769     0.20736769     0.49469173
     0.44749360     0.23221191     0.23221191     0.48913980
     0.44991248     0.25675998     0.25675998     0.48296405
     0.45233137     0.28098059     0.28098059     0.47617235
     0.45475025     0.30484285     0.30484285     0.46877336
     0.45716914     0.32831633     0.32831633     0.46077651
     0.45958802     0.35137108     0.35137108     0.45219201
     0.46200691     0.37397771     0.37397771     0.44303080
     0.46442579     0.39610739     0.39610739     0.43330457
     0.46684468     0.41773188     0.41773188     0.42302572
     0.46926356     0.43882362     0.43882362     0.41220736
     0.47168244     0.45935570     0.45935570     0.40086329
     0.47410133     0.47930194     0.47930194     0.38900797
     0.47652021     0.49863690     0.49863690     0.37665653
     0.47893910     0.51733592     0.51733592     0.36382472
     0.48135798     0.53537514     0.53537514     0.35052890
     0.48377687     0.55273158     0.55273158     0.33678603
     0.48619575     0.56938308     0.56938308     0.32261364
     0.48861463     0.58530842     0.58530842     0.30802980
     0.49103352     0.60048727     0.60048727     0.29305312
     0.49345240     0.61490030     0.61490030     0.27770268
     0.49587129     0.62852910     0.62852910     0.26199808
     0.49829017     0.64135630     0.64135630     0.24595933
     0.50070906     0.65336555     0.65336555     0.22960690
     0.50312794     0.66454152     0.66454152     0.21296164
     0.50554682     0.67486996     0.67486996     0.19604477
     0.50796571     0.68433770     0.68433770     0.17887788
     0.51038459     0.69293267     0.69293267     0.16148285
     0.51280348     0.70064390     0.70064390     0.14388188
     0.51522236     0.70746155     0.70746155     0.12609740
     0.51764125     0.71337694     0.71337694     0.10815211
     0.52006013     0.71838252     0.71838252     0.09006888
     0.52247901     0.72247191     0.72247191     0.07187078
     0.52489790     0.72563988     0.72563988     0.05358102
     0.52731678     0.72788240     0.72788240     0.03522293
     0.52973567     0.72919662     0.72919662     0.01681991
     0.53215455     0.72958084     0.72958084    -0.00160455
     0.53457344     0.72903459     0.72903459    -0.02002697
     0.53699232     0.72755856     0.72755856    -0.03842385
     0.53941120     0.72515463     0.72515463    -0.05677173
     0.54183009     0.72182587     0.72182587    -0.07504720
     0.54424897     0.71757653     0.71757653    -0.09322696
     0.54666786     0.71241201     0.71241201    -0.11128782
     0.54908674     0.70633892     0.70633892    -0.12920675
     0.55150563     0.69936499     0.69936499    -0.14696089
     0.55392451     0.69149912     0.69149912    -0.16452761
     0.55634340     0.68275135     0.68275135    -0.18188449
     0.55876228     0.67313282     0.67313282    -0.19900941
     0.56118116     0.66265580     0.66265580    -0.21588052
     0.56360005     0.65133366     0.65133366    -0.23247630
     0.56601893     0.63918084     0.63918084    -0.24877559
     0.56843782     0.62621283     0.62621283    -0.26475761
     0.57085670     0.61244618     0.61244618    -0.28040196
     0.57327559     0.59789844     0.59789844    -0.29568871
     0.57569447     0.58258816     0.58258816    -0.31059834
     0.57811335     0.56653488     0.56653488    -0.32511185
     0.58053224     0.54975906     0.54975906    -0.33921072
     0.58295112     0.53228210     0.53228210    -0.35287698
     0.58537001     0.51412630     0.51412630    -0.36609320
     0.58778889     0.49531479     0.49531479    -0.37884251
     0.59020778     0.47587159     0.47587159    -0.39110867
     0.59262666     0.45582147     0.45582147    -0.40287602
     0.59504554     0.43519002     0.43519002    -0.41412956
     0.59746443     0.41400355     0.41400355    -0.42485494
     0.59988331     0.39228908     0.39228908    -0.43503847
     0.60230220     0.37007429     0.37007429    -0.44466718
     0.60472108     0.34738753     0.34738753    -0.45372877
     0.60713997     0.32425773     0.32425773    -0.46221170
     0.60955885     0.30071438     0.30071438    -0.47010515
     0.61197773     0.27678751     0.27678751    -0.47739904
     0.61439662     0.25250764     0.25250764    -0.48408408
     0.61681550     0.22790573     0.22790573    -0.49015173
     0.61923439     0.20301317     0.20301317    -0.49559427
     0.62165327     0.17786168     0.17786168    -0.50040475
     0.62407216     0.15248336     0.15248336    -0.50457703
     0.62649104     0.12691057     0.12691057    -0.50810579
     0.62890992     0.10117592     0.10117592    -0.51098654
     0.63132881     0.07531224     0.07531224    -0.51321560
     0.63374769     0.04935250     0.04935250    -0.51479013
     0.63616658     0.02332983     0.02332983    -0.51570811
     0.63858546    -0.00272260    -0.00272260    -0.51596838
     0.64100435    -0.02877156    -0.02877156    -0.51557061
     0.64342323    -0.05478383    -0.05478383    -0.51451530
     0.64584212    -0.08072622    -0.08072622    -0.51280379
     0.64826100    -0.10656566    -0.10656566    -0.51043828
     0.65067988    -0.13226919    -0.13226919    -0.50742178
     0.65309877    -0.15780403    -0.15780403    -0.50375814
     0.65551765    -0.18313761    -0.18313761    -0.49945202
     0.65793654    -0.20823763    -0.20823763    -0.49450892
     0.66035542    -0.23307207    -0.23307207    -0.48893515
     0.66277431    -0.25760926    -0.25760926    -0.48273780
     0.66519319    -0.28181791    -0.28181791    -0.47592480
     0.66761207    -0.30566713    -0.30566713    -0.46850482
     0.67003096    -0.32912653    -0.32912653    -0.46048733
     0.67244984    -0.35216616    -0.35216616    -0.45188255
     0.67486873    -0.37475666    -0.37475666    -0.44270146
     0.67728761    -0.39686921    -0.39686921    -0.43295577
     0.67970650    -0.41847561    -0.41847561    -0.42265791
     0.68212538    -0.43954831    -0.43954831    -0.41182100
     0.68454426    -0.46006042    -0.46006042    -0.40045888
     0.68696315    -0.47998579    -0.47998579    -0.38858602
     0.68938203    -0.49929901    -0.49929901    -0.37621759
     0.69180092    -0.51797544    -0.51797544    -0.36336933
     0.69421980    -0.53599127    -0.53599127    -0.35005766
     0.69663869    -0.55332352    -0.55332352    -0.33629953
     0.69905757    -0.56995008    -0.56995008    -0.32211250
     0.70147645    -0.58584975    -0.58584975    -0.30751467
     0.70389534    -0.60100226    -0.60100226    -0.29252464
     0.70631422    -0.61538827    -0.61538827    -0.27716153
     0.70873311    -0.62898944    -0.62898944    -0.26144495
     0.71115199    -0.64178842    -0.64178842    -0.24539493
     0.71357088    -0.65376890    -0.65376890    -0.22903195
     0.71598976    -0.66491558    -0.66491558    -0.21237687
     0.71840864    -0.67521426    -0.67521426    -0.19545093
     0.72082753    -0.68465180    -0.68465180    -0.17827572
     0.72324641    -0.69321616    -0.69321616    -0.16087315
     0.72566530    -0.70089643    -0.70089643    -0.14326540
     0.72808418    -0.70768280    -0.70768280    -0.12547494
     0.73050307    -0.71356662    -0.71356662    -0.10752446
     0.73292195    -0.71854039    -0.71854039    -0.08943684
     0.73534084    -0.72259776    -0.72259776    -0.07123516
     0.73775972    -0.72573356    -0.72573356    -0.05294263
     0.74017860    -0.72794379    -0.72794379    -0.03458258
     0.74259749    -0.72922564    -0.72922564    -0.01617842
     0.74501637    -0.72957746    -0.72957746     0.00224637
     0.74743526    -0.72899880    -0.72899880     0.02066830
     0.74985414    -0.72749042    -0.72749042     0.03906386
     0.75227303    -0.72505422    -0.72505422     0.05740961
     0.75469191    -0.72169332    -0.72169332     0.07568214
     0.75711079    -0.71741200    -0.71741200     0.09385814
     0.75952968    -0.71221572    -0.71221572     0.11191445
     0.76194856    -0.70611111    -0.70611111     0.12982802
     0.76436745    -0.69910596    -0.69910596     0.14757601
     0.76678633    -0.69120920    -0.69120920     0.16513580
     0.76920522    -0.68243090    -0.68243090     0.18248497
     0.77162410    -0.67278226    -0.67278226     0.19960142
     0.77404298    -0.66227558    -0.66227558     0.21646329
     0.77646187    -0.65092426    -0.65092426     0.23304910
     0.77888075    -0.63874278    -0.63874278     0.24933769
     0.78129964    -0.62574667    -0.62574667     0.26530829
     0.78371852    -0.61195251    -0.61195251     0.28094052
     0.78613741    -0.59737789    -0.59737789     0.29621445
