#     time (fs)  |  E_x (eV/ang)  | E_y (eV/ang) | E_z (eV/ang)
     0.00000000     0.00000000     0.00000000     0.00000000
     0.00241888     0.01871815     0.00000000     0.01871815
     0.00483777     0.03742147     0.00000000     0.03742147
     0.00725665     0.05609511     0.00000000     0.05609511
     0.00967554     0.07472427     0.00000000     0.07472427
     0.01209442     0.09329419     0.00000000     0.09329419
     0.01451331     0.11179013     0.00000000     0.11179013
     0.01693219     0.13019744     0.00000000     0.13019744
     0.01935107     0.14850151     0.00000000     0.14850151
     0.02176996     0.16668784     0.00000000     0.16668784
     0.02418884     0.18474201     0.00000000     0.18474201
     0.02660773     0.20264969     0.00000000     0.20264969
     0.02902661     0.22039669     0.00000000     0.22039669
     0.03144550     0.23796895     0.00000000     0.23796895
     0.03386438     0.25535252     0.00000000     0.25535252
     0.03628326     0.27253362     0.00000000     0.27253362
     0.03870215     0.28949864     0.00000000     0.28949864
     0.04112103     0.30623411     0.00000000     0.30623411
     0.04353992     0.32272678     0.00000000     0.32272678
     0.04595880     0.33896355     0.00000000     0.33896355
     0.04837769     0.35493157     0.00000000     0.35493157
     0.05079657     0.37061816     0.00000000     0.37061816
     0.05321546     0.38601090     0.00000000     0.38601090
     0.05563434     0.40109757     0.00000000     0.40109757
     0.05805322     0.41586621     0.00000000     0.41586621
     0.06047211     0.43030512     0.00000000     0.43030512
     0.06289099     0.44440284     0.00000000     0.44440284
     0.06530988     0.45814820     0.00000000     0.45814820
     0.06772876     0.47153030     0.00000000     0.47153030
     0.07014765     0.48453852     0.00000000     0.48453852
     0.07256653     0.49716256     0.00000000     0.49716256
     0.07498541     0.50939241     0.00000000     0.50939241
     0.07740430     0.52121836     0.00000000     0.52121836
     0.07982318     0.53263104     0.00000000     0.53263104
     0.08224207     0.54362141     0.00000000     0.54362141
     0.08466095     0.55418074     0.00000000     0.55418074
     0.08707984     0.56430067     0.00000000     0.56430067
     0.08949872     0.57397316     0.00000000     0.57397316
     0.09191760     0.58319057     0.00000000     0.58319057
     0.09433649     0.59194556     0.00000000     0.59194556
     0.09675537     0.60023121     0.00000000     0.60023121
     0.09917426     0.60804094     0.00000000     0.60804094
     0.10159314     0.61536856     0.00000000     0.61536856
     0.10401203     0.62220825     0.00000000     0.62220825
     0.10643091     0.62855461     0.00000000     0.62855461
     0.10884979     0.63440259     0.00000000     0.63440259
     0.11126868     0.63974756     0.00000000     0.63974756
     0.11368756     0.64458528     0.00000000     0.64458528
     0.11610645     0.64891191     0.00000000     0.64891191
     0.11852533     0.65272403     0.00000000     0.65272403
     0.12094422     0.65601861     0.00000000     0.65601861
     0.12336310     0.65879304     0.00000000     0.65879304
     0.12578198     0.66104512     0.00000000     0.66104512
     0.12820087     0.66277306     0.00000000     0.66277306
     0.13061975     0.66397549     0.00000000     0.66397549
     0.13303864     0.66465146     0.00000000     0.66465146
     0.13545752     0.66480044     0.00000000     0.66480044
     0.13787641     0.66442231     0.00000000     0.66442231
     0.14029529     0.66351736     0.00000000     0.66351736
     0.14271418     0.66208631     0.00000000     0.66208631
     0.14513306     0.66013030     0.00000000     0.66013030
     0.14755194     0.65765088     0.00000000     0.65765088
     0.14997083     0.65465002     0.00000000     0.65465002
     0.15238971     0.65113009     0.00000000     0.65113009
     0.15480860     0.64709388     0.00000000     0.64709388
     0.15722748     0.64254460     0.00000000     0.64254460
     0.15964637     0.63748585     0.00000000     0.63748585
     0.16206525     0.63192165     0.00000000     0.63192165
     0.16448413     0.62585640     0.00000000     0.62585640
     0.16690302     0.61929492     0.00000000     0.61929492
     0.16932190     0.61224240     0.00000000     0.61224240
     0.17174079     0.60470444     0.00000000     0.60470444
     0.17415967     0.59668702     0.00000000     0.59668702
     0.17657856     0.58819649     0.00000000     0.58819649
     0.17899744     0.57923958     0.00000000     0.57923958
     0.18141632     0.56982340     0.00000000     0.56982340
     0.18383521     0.55995541     0.00000000     0.55995541
     0.18625409     0.54964344     0.00000000     0.54964344
     0.18867298     0.53889566     0.00000000     0.53889566
     0.19109186     0.52772060     0.00000000     0.52772060
     0.19351075     0.51612711     0.00000000     0.51612711
     0.19592963     0.50412439     0.00000000     0.50412439
     0.19834851     0.49172195     0.00000000     0.49172195
     0.20076740     0.47892964     0.00000000     0.47892964
     0.20318628     0.46575758     0.00000000     0.46575758
     0.20560517     0.45221623     0.00000000     0.45221623
     0.20802405     0.43831632     0.00000000     0.43831632
     0.21044294     0.42406887     0.00000000     0.42406887
     0.21286182     0.40948519     0.00000000     0.40948519
     0.21528071     0.39457682     0.00000000     0.39457682
     0.21769959     0.37935560     0.00000000     0.37935560
     0.22011847     0.36383360     0.00000000     0.36383360
     0.22253736     0.34802311     0.00000000     0.34802311
     0.22495624     0.33193668     0.00000000     0.33193668
     0.22737513     0.31558706     0.00000000     0.31558706
     0.22979401     0.29898721     0.00000000     0.29898721
     0.23221290     0.28215030     0.00000000     0.28215030
     0.23463178     0.26508967     0.00000000     0.26508967
     0.23705066     0.24781886     0.00000000     0.24781886
     0.23946955     0.23035156     0.00000000     0.23035156
     0.24188843     0.21270161     0.00000000     0.21270161
     0.24430732     0.19488301     0.00000000     0.19488301
     0.24672620     0.17690989     0.00000000     0.17690989
     0.24914509     0.15879650     0.00000000     0.15879650
     0.25156397     0.14055720     0.00000000     0.14055720
     0.25398285     0.12220646     0.00000000     0.12220646
     0.25640174     0.10375882     0.00000000     0.10375882
     0.25882062     0.08522891     0.00000000     0.08522891
     0.26123951     0.06663142     0.00000000     0.06663142
     0.26365839     0.04798110     0.00000000     0.04798110
     0.26607728     0.02929274     0.00000000     0.02929274
     0.26849616     0.01058115     0.00000000     0.01058115
     0.27091504    -0.00813883    -0.00000000    -0.00813883
     0.27333393    -0.02685235    -0.00000000    -0.02685235
     0.27575281    -0.04554459    -0.00000000    -0.04554459
     0.27817170    -0.06420071    -0.00000000    -0.06420071
     0.28059058    -0.08280593    -0.00000000    -0.08280593
     0.28300947    -0.10134549    -0.00000000    -0.10134549
     0.28542835    -0.11980469    -0.00000000    -0.11980469
     0.28784723    -0.13816891    -0.00000000    -0.13816891
     0.29026612    -0.15642357    -0.00000000    -0.15642357
     0.29268500    -0.17455420    -0.00000000    -0.17455420
     0.29510389    -0.19254644    -0.00000000    -0.19254644
     0.29752277    -0.21038600    -0.00000000    -0.21038600
     0.29994166    -0.22805875    -0.00000000    -0.22805875
     0.30236054    -0.24555067    -0.00000000    -0.24555067
     0.30477943    -0.26284790    -0.00000000    -0.26284790
     0.30719831    -0.27993673    -0.00000000    -0.27993673
     0.30961719    -0.29680359    -0.00000000    -0.29680359
     0.31203608    -0.31343512    -0.00000000    -0.31343512
     0.31445496    -0.32981812    -0.00000000    -0.32981812
     0.31687385    -0.34593962    -0.00000000    -0.34593962
     0.31929273    -0.36178683    -0.00000000    -0.36178683
     0.32171162    -0.37734718    -0.00000000    -0.37734718
     0.32413050    -0.39260833    -0.00000000    -0.39260833
     0.32654938    -0.40755819    -0.00000000    -0.40755819
     0.32896827    -0.42218490    -0.00000000    -0.42218490
     0.33138715    -0.43647687    -0.00000000    -0.43647687
     0.33380604    -0.45042275    -0.00000000    -0.45042275
     0.33622492    -0.46401150    -0.00000000    -0.46401150
     0.33864381    -0.47723234    -0.00000000    -0.47723234
     0.34106269    -0.49007479    -0.00000000    -0.49007479
     0.34348157    -0.50252866    -0.00000000    -0.50252866
     0.34590046    -0.51458407    -0.00000000    -0.51458407
     0.34831934    -0.52623149    -0.00000000    -0.52623149
     0.35073823    -0.53746165    -0.00000000    -0.53746165
     0.35315711    -0.54826567    -0.00000000    -0.54826567
     0.35557600    -0.55863498    -0.00000000    -0.55863498
     0.35799488    -0.56856134    -0.00000000    -0.56856134
     0.36041376    -0.57803690    -0.00000000    -0.57803690
     0.36283265    -0.58705414    -0.00000000    -0.58705414
     0.36525153    -0.59560592    -0.00000000    -0.59560592
     0.36767042    -0.60368544    -0.00000000    -0.60368544
     0.37008930    -0.61128630    -0.00000000    -0.61128630
     0.37250819    -0.61840248    -0.00000000    -0.61840248
     0.37492707    -0.62502834    -0.00000000    -0.62502834
     0.37734595    -0.63115861    -0.00000000    -0.63115861
     0.37976484    -0.63678845    -0.00000000    -0.63678845
     0.38218372    -0.64191338    -0.00000000    -0.64191338
     0.38460261    -0.64652935    -0.00000000    -0.64652935
     0.38702149    -0.65063269    -0.00000000    -0.65063269
     0.38944038    -0.65422015    -0.00000000    -0.65422015
     0.39185926    -0.65728888    -0.00000000    -0.65728888
     0.39427815    -0.65983645    -0.00000000    -0.65983645
     0.39669703    -0.66186085    -0.00000000    -0.66186085
     0.39911591    -0.66336047    -0.00000000    -0.66336047
     0.40153480    -0.66433411    -0.00000000    -0.66433411
     0.40395368    -0.66478100    -0.00000000    -0.66478100
     0.40637257    -0.66470080     0.00000000    -0.66470080
     0.40879145    -0.66409357     0.00000000    -0.66409357
     0.41121034    -0.66295978     0.00000000    -0.66295978
     0.41362922    -0.66130033     0.00000000    -0.66130033
     0.41604810    -0.65911655     0.00000000    -0.65911655
     0.41846699    -0.65641016     0.00000000    -0.65641016
     0.42088587    -0.65318331     0.00000000    -0.65318331
     0.42330476    -0.64943855     0.00000000    -0.64943855
     0.42572364    -0.64517886     0.00000000    -0.64517886
     0.42814253    -0.64040762     0.00000000    -0.64040762
     0.43056141    -0.63512860     0.00000000    -0.63512860
     0.43298029    -0.62934600     0.00000000    -0.62934600
     0.43539918    -0.62306439     0.00000000    -0.62306439
     0.43781806    -0.61628876     0.00000000    -0.61628876
     0.44023695    -0.60902448     0.00000000    -0.60902448
     0.44265583    -0.60127731     0.00000000    -0.60127731
     0.44507472    -0.59305339     0.00000000    -0.59305339
     0.44749360    -0.58435925     0.00000000    -0.58435925
     0.44991248    -0.57520178     0.00000000    -0.57520178
     0.45233137    -0.56558823     0.00000000    -0.56558823
     0.45475025    -0.55552623     0.00000000    -0.55552623
     0.45716914    -0.54502376     0.00000000    -0.54502376
     0.45958802    -0.53408915     0.00000000    -0.53408915
     0.46200691    -0.52273106     0.00000000    -0.52273106
     0.46442579    -0.51095851     0.00000000    -0.51095851
     0.46684468    -0.49878082     0.00000000    -0.49878082
     0.46926356    -0.48620765     0.00000000    -0.48620765
     0.47168244    -0.47324897     0.00000000    -0.47324897
     0.47410133    -0.45991506     0.00000000    -0.45991506
     0.47652021    -0.44621648     0.00000000    -0.44621648
     0.47893910    -0.43216411     0.00000000    -0.43216411
     0.48135798    -0.41776907     0.00000000    -0.41776907
     0.48377687    -0.40304279     0.00000000    -0.40304279
     0.48619575    -0.38799694     0.00000000    -0.38799694
     0.48861463    -0.37264345     0.00000000    -0.37264345
     0.49103352    -0.35699450     0.00000000    -0.35699450
     0.49345240    -0.34106249     0.00000000    -0.34106249
     0.49587129    -0.32486005     0.00000000    -0.32486005
     0.49829017    -0.30840004     0.00000000    -0.30840004
     0.50070906    -0.29169550     0.00000000    -0.29169550
     0.50312794    -0.27475967     0.00000000    -0.27475967
     0.50554682    -0.25760599     0.00000000    -0.25760599
     0.50796571    -0.24024806     0.00000000    -0.24024806
     0.51038459    -0.22269964     0.00000000    -0.22269964
     0.51280348    -0.20497464     0.00000000    -0.20497464
     0.51522236    -0.18708712     0.00000000    -0.18708712
     0.51764125    -0.16905126     0.00000000    -0.16905126
     0.52006013    -0.15088135     0.00000000    -0.15088135
     0.52247901    -0.13259182     0.00000000    -0.13259182
     0.52489790    -0.11419716     0.00000000    -0.11419716
     0.52731678    -0.09571195     0.00000000    -0.09571195
     0.52973567    -0.07715085     0.00000000    -0.07715085
     0.53215455    -0.05852858     0.00000000    -0.05852858
     0.53457344    -0.03985990     0.00000000    -0.03985990
     0.53699232    -0.02115962     0.00000000    -0.02115962
     0.53941120    -0.00244256     0.00000000    -0.00244256
     0.54183009     0.01627644     0.00000000     0.01627644
     0.54424897     0.03498253     0.00000000     0.03498253
     0.54666786     0.05366088     0.00000000     0.05366088
     0.54908674     0.07229669     0.00000000     0.07229669
     0.55150563     0.09087517     0.00000000     0.09087517
     0.55392451     0.10938160     0.00000000     0.10938160
     0.55634340     0.12780130     0.00000000     0.12780130
     0.55876228     0.14611967     0.00000000     0.14611967
     0.56118116     0.16432218     0.00000000     0.16432218
     0.56360005     0.18239440     0.00000000     0.18239440
     0.56601893     0.20032201     0.00000000     0.20032201
     0.56843782     0.21809078     0.00000000     0.21809078
     0.57085670     0.23568662     0.00000000     0.23568662
     0.57327559     0.25309560     0.00000000     0.25309560
     0.57569447     0.27030390     0.00000000     0.27030390
     0.57811335     0.28729787     0.00000000     0.28729787
     0.58053224     0.30406405     0.00000000     0.30406405
     0.58295112     0.32058914     0.00000000     0.32058914
     0.58537001     0.33686004     0.00000000     0.33686004
     0.58778889     0.35286384     0.00000000     0.35286384
     0.59020778     0.36858787     0.00000000     0.36858787
     0.59262666     0.38401964     0.00000000     0.38401964
     0.59504554     0.39914693     0.00000000     0.39914693
     0.59746443     0.41395773     0.00000000     0.41395773
     0.59988331     0.42844032     0.00000000     0.42844032
     0.60230220     0.44258320     0.00000000     0.44258320
     0.60472108     0.45637515     0.00000000     0.45637515
     0.60713997     0.46980526     0.00000000     0.46980526
     0.60955885     0.48286286     0.00000000     0.48286286
     0.61197773     0.49553760     0.00000000     0.49553760
     0.61439662     0.50781943     0.00000000     0.50781943
     0.61681550     0.51969862     0.00000000     0.51969862
     0.61923439     0.53116574     0.00000000     0.53116574
     0.62165327     0.54221171     0.00000000     0.54221171
     0.62407216     0.55282776     0.00000000     0.55282776
     0.62649104     0.56300549     0.00000000     0.56300549
     0.62890992     0.57273681     0.00000000     0.57273681
     0.63132881     0.58201401     0.00000000     0.58201401
     0.63374769     0.59082974     0.00000000     0.59082974
     0.63616658     0.59917700     0.00000000     0.59917700
     0.63858546     0.60704918     0.00000000     0.60704918
     0.64100435     0.61444004     0.00000000     0.61444004
     0.64342323     0.62134372     0.00000000     0.62134372
     0.64584212     0.62775474     0.00000000     0.62775474
     0.64826100     0.63366802     0.00000000     0.63366802
     0.65067988     0.63907887     0.00000000     0.63907887
     0.65309877     0.64398299     0.00000000     0.64398299
     0.65551765     0.64837652     0.00000000     0.64837652
     0.65793654     0.65225594     0.00000000     0.65225594
     0.66035542     0.65561821     0.00000000     0.65561821
     0.66277431     0.65846063     0.00000000     0.65846063
     0.66519319     0.66078098     0.00000000     0.66078098
     0.66761207     0.66257739     0.00000000     0.66257739
     0.67003096     0.66384845     0.00000000     0.66384845
     0.67244984     0.66459315     0.00000000     0.66459315
     0.67486873     0.66481091     0.00000000     0.66481091
     0.67728761     0.66450154     0.00000000     0.66450154
     0.67970650     0.66366529     0.00000000     0.66366529
     0.68212538     0.66230283     0.00000000     0.66230283
     0.68454426     0.66041524     0.00000000     0.66041524
     0.68696315     0.65800401     0.00000000     0.65800401
     0.68938203     0.65507105     0.00000000     0.65507105
     0.69180092     0.65161870     0.00000000     0.65161870
     0.69421980     0.64764968     0.00000000     0.64764968
     0.69663869     0.64316715     0.00000000     0.64316715
     0.69905757     0.63817465     0.00000000     0.63817465
     0.70147645     0.63267616     0.00000000     0.63267616
     0.70389534     0.62667602     0.00000000     0.62667602
     0.70631422     0.62017899     0.00000000     0.62017899
     0.70873311     0.61319023     0.00000000     0.61319023
     0.71115199     0.60571528     0.00000000     0.60571528
     0.71357088     0.59776006     0.00000000     0.59776006
     0.71598976     0.58933089     0.00000000     0.58933089
     0.71840864     0.58043443     0.00000000     0.58043443
     0.72082753     0.57107776     0.00000000     0.57107776
     0.72324641     0.56126829     0.00000000     0.56126829
     0.72566530     0.55101379     0.00000000     0.55101379
     0.72808418     0.54032240     0.00000000     0.54032240
     0.73050307     0.52920259     0.00000000     0.52920259
     0.73292195     0.51766318     0.00000000     0.51766318
     0.73534084     0.50571332     0.00000000     0.50571332
     0.73775972     0.49336249     0.00000000     0.49336249
     0.74017860     0.48062047     0.00000000     0.48062047
     0.74259749     0.46749737     0.00000000     0.46749737
     0.74501637     0.45400360     0.00000000     0.45400360
     0.74743526     0.44014986     0.00000000     0.44014986
     0.74985414     0.42594712     0.00000000     0.42594712
     0.75227303     0.41140665     0.00000000     0.41140665
     0.75469191     0.39653999     0.00000000     0.39653999
     0.75711079     0.38135891     0.00000000     0.38135891
     0.75952968     0.36587545     0.00000000     0.36587545
     0.76194856     0.35010190     0.00000000     0.35010190
     0.76436745     0.33405075     0.00000000     0.33405075
     0.76678633     0.31773474     0.00000000     0.31773474
     0.76920522     0.30116680     0.00000000     0.30116680
     0.77162410     0.28436006     0.00000000     0.28436006
     0.77404298     0.26732786     0.00000000     0.26732786
     0.77646187     0.25008370     0.00000000     0.25008370
     0.77888075     0.23264125     0.00000000     0.23264125
     0.78129964     0.21501434     0.00000000     0.21501434
     0.78371852     0.19721695     0.00000000     0.19721695
     0.78613741     0.17926319     0.00000000     0.17926319
