#     time (fs)  |  E_x (eV/ang)  | E_y (eV/ang) | E_z (eV/ang)
     0.00000000     0.00000000     0.00000000     0.00000000
     0.00241888     0.03336495     0.00000000     0.00000000
     0.00483777     0.06670121     0.00000000     0.00000000
     0.00725665     0.09998010     0.00000000     0.00000000
     0.00967554     0.13317301     0.00000000     0.00000000
     0.01209442     0.16625138     0.00000000     0.00000000
     0.01451331     0.19918676     0.00000000     0.00000000
     0.01693219     0.23195083     0.00000000     0.00000000
     0.01935107     0.26451542     0.00000000     0.00000000
     0.02176996     0.29685251     0.00000000     0.00000000
     0.02418884     0.32893429     0.00000000     0.00000000
     0.02660773     0.36073317     0.00000000     0.00000000
     0.02902661     0.39222180     0.00000000     0.00000000
     0.03144550     0.42337310     0.00000000     0.00000000
     0.03386438     0.45416028     0.00000000     0.00000000
     0.03628326     0.48455685     0.00000000     0.00000000
     0.03870215     0.51453669     0.00000000     0.00000000
     0.04112103     0.54407400     0.00000000     0.00000000
     0.04353992     0.57314338     0.00000000     0.00000000
     0.04595880     0.60171982     0.00000000     0.00000000
     0.04837769     0.62977876     0.00000000     0.00000000
     0.05079657     0.65729605     0.00000000     0.00000000
     0.05321546     0.68424804     0.00000000     0.00000000
     0.05563434     0.71061154     0.00000000     0.00000000
     0.05805322     0.73636388     0.00000000     0.00000000
     0.06047211     0.76148291     0.00000000     0.00000000
     0.06289099     0.78594702     0.00000000     0.00000000
     0.06530988     0.80973518     0.00000000     0.00000000
     0.06772876     0.83282693     0.00000000     0.00000000
     0.07014765     0.85520241     0.00000000     0.00000000
     0.07256653     0.87684237     0.00000000     0.00000000
     0.07498541     0.89772820     0.00000000     0.00000000
     0.07740430     0.91784194     0.00000000     0.00000000
     0.07982318     0.93716629     0.00000000     0.00000000
     0.08224207     0.95568463     0.00000000     0.00000000
     0.08466095     0.97338103     0.00000000     0.00000000
     0.08707984     0.99024028     0.00000000     0.00000000
     0.08949872     1.00624787     0.00000000     0.00000000
     0.09191760     1.02139004     0.00000000     0.00000000
     0.09433649     1.03565376     0.00000000     0.00000000
     0.09675537     1.04902677     0.00000000     0.00000000
     0.09917426     1.06149756     0.00000000     0.00000000
     0.10159314     1.07305541     0.00000000     0.00000000
     0.10401203     1.08369038     0.00000000     0.00000000
     0.10643091     1.09339332     0.00000000     0.00000000
     0.10884979     1.10215589     0.00000000     0.00000000
     0.11126868     1.10997055     0.00000000     0.00000000
     0.11368756     1.11683058     0.00000000     0.00000000
     0.11610645     1.12273008     0.00000000     0.00000000
     0.11852533     1.12766398     0.00000000     0.00000000
     0.12094422     1.13162803     0.00000000     0.00000000
     0.12336310     1.13461882     0.00000000     0.00000000
     0.12578198     1.13663378     0.00000000     0.00000000
     0.12820087     1.13767118     0.00000000     0.00000000
     0.13061975     1.13773013     0.00000000     0.00000000
     0.13303864     1.13681057     0.00000000     0.00000000
     0.13545752     1.13491330     0.00000000     0.00000000
     0.13787641     1.13203995     0.00000000     0.00000000
     0.14029529     1.12819298     0.00000000     0.00000000
     0.14271418     1.12337571     0.00000000     0.00000000
     0.14513306     1.11759229     0.00000000     0.00000000
     0.14755194     1.11084768     0.00000000     0.00000000
     0.14997083     1.10314768     0.00000000     0.00000000
     0.15238971     1.09449892     0.00000000     0.00000000
     0.15480860     1.08490884     0.00000000     0.00000000
     0.15722748     1.07438568     0.00000000     0.00000000
     0.15964637     1.06293850     0.00000000     0.00000000
     0.16206525     1.05057714     0.00000000     0.00000000
     0.16448413     1.03731222     0.00000000     0.00000000
     0.16690302     1.02315517     0.00000000     0.00000000
     0.16932190     1.00811816     0.00000000     0.00000000
     0.17174079     0.99221411     0.00000000     0.00000000
     0.17415967     0.97545670     0.00000000     0.00000000
     0.17657856     0.95786036     0.00000000     0.00000000
     0.17899744     0.93944021     0.00000000     0.00000000
     0.18141632     0.92021209     0.00000000     0.00000000
     0.18383521     0.90019254     0.00000000     0.00000000
     0.18625409     0.87939879     0.00000000     0.00000000
     0.18867298     0.85784870     0.00000000     0.00000000
     0.19109186     0.83556083     0.00000000     0.00000000
     0.19351075     0.81255433     0.00000000     0.00000000
     0.19592963     0.78884899     0.00000000     0.00000000
     0.19834851     0.76446520     0.00000000     0.00000000
     0.20076740     0.73942394     0.00000000     0.00000000
     0.20318628     0.71374673     0.00000000     0.00000000
     0.20560517     0.68745567     0.00000000     0.00000000
     0.20802405     0.66057336     0.00000000     0.00000000
     0.21044294     0.63312292     0.00000000     0.00000000
     0.21286182     0.60512796     0.00000000     0.00000000
     0.21528071     0.57661257     0.00000000     0.00000000
     0.21769959     0.54760126     0.00000000     0.00000000
     0.22011847     0.51811898     0.00000000     0.00000000
     0.22253736     0.48819110     0.00000000     0.00000000
     0.22495624     0.45784335     0.00000000     0.00000000
     0.22737513     0.42710183     0.00000000     0.00000000
     0.22979401     0.39599298     0.00000000     0.00000000
     0.23221290     0.36454356     0.00000000     0.00000000
     0.23463178     0.33278061     0.00000000     0.00000000
     0.23705066     0.30073145     0.00000000     0.00000000
     0.23946955     0.26842365     0.00000000     0.00000000
     0.24188843     0.23588500     0.00000000     0.00000000
     0.24430732     0.20314347     0.00000000     0.00000000
     0.24672620     0.17022722     0.00000000     0.00000000
     0.24914509     0.13716457     0.00000000     0.00000000
     0.25156397     0.10398396     0.00000000     0.00000000
     0.25398285     0.07071391     0.00000000     0.00000000
     0.25640174     0.03738304     0.00000000     0.00000000
     0.25882062     0.00402003     0.00000000     0.00000000
     0.26123951    -0.02934645    -0.00000000    -0.00000000
     0.26365839    -0.06268768    -0.00000000    -0.00000000
     0.26607728    -0.09597500    -0.00000000    -0.00000000
     0.26849616    -0.12917978    -0.00000000    -0.00000000
     0.27091504    -0.16227346    -0.00000000    -0.00000000
     0.27333393    -0.19522757    -0.00000000    -0.00000000
     0.27575281    -0.22801378    -0.00000000    -0.00000000
     0.27817170    -0.26060388    -0.00000000    -0.00000000
     0.28059058    -0.29296985    -0.00000000    -0.00000000
     0.28300947    -0.32508385    -0.00000000    -0.00000000
     0.28542835    -0.35691827    -0.00000000    -0.00000000
     0.28784723    -0.38844572    -0.00000000    -0.00000000
     0.29026612    -0.41963908    -0.00000000    -0.00000000
     0.29268500    -0.45047153    -0.00000000    -0.00000000
     0.29510389    -0.48091656    -0.00000000    -0.00000000
     0.29752277    -0.51094797    -0.00000000    -0.00000000
     0.29994166    -0.54053994    -0.00000000    -0.00000000
     0.30236054    -0.56966703    -0.00000000    -0.00000000
     0.30477943    -0.59830417    -0.00000000    -0.00000000
     0.30719831    -0.62642673    -0.00000000    -0.00000000
     0.30961719    -0.65401054    -0.00000000    -0.00000000
     0.31203608    -0.68103187    -0.00000000    -0.00000000
     0.31445496    -0.70746748    -0.00000000    -0.00000000
     0.31687385    -0.73329462    -0.00000000    -0.00000000
     0.31929273    -0.75849110    -0.00000000    -0.00000000
     0.32171162    -0.78303524    -0.00000000    -0.00000000
     0.32413050    -0.80690593    -0.00000000    -0.00000000
     0.32654938    -0.83008264    -0.00000000    -0.00000000
     0.32896827    -0.85254544    -0.00000000    -0.00000000
     0.33138715    -0.87427500    -0.00000000    -0.00000000
     0.33380604    -0.89525265    -0.00000000    -0.00000000
     0.33622492    -0.91546033    -0.00000000    -0.00000000
     0.33864381    -0.93488067    -0.00000000    -0.00000000
     0.34106269    -0.95349697    -0.00000000    -0.00000000
     0.34348157    -0.97129321    -0.00000000    -0.00000000
     0.34590046    -0.98825410    -0.00000000    -0.00000000
     0.34831934    -1.00436503    -0.00000000    -0.00000000
     0.35073823    -1.01961216    -0.00000000    -0.00000000
     0.35315711    -1.03398237    -0.00000000    -0.00000000
     0.35557600    -1.04746331    -0.00000000    -0.00000000
     0.35799488    -1.06004337    -0.00000000    -0.00000000
     0.36041376    -1.07171175    -0.00000000    -0.00000000
     0.36283265    -1.08245840    -0.00000000    -0.00000000
     0.36525153    -1.09227408    -0.00000000    -0.00000000
     0.36767042    -1.10115035    -0.00000000    -0.00000000
     0.37008930    -1.10907958    -0.00000000    -0.00000000
     0.37250819    -1.11605494    -0.00000000    -0.00000000
     0.37492707    -1.12207044    -0.00000000    -0.00000000
     0.37734595    -1.12712090    -0.00000000    -0.00000000
     0.37976484    -1.13120198    -0.00000000    -0.00000000
     0.38218372    -1.13431017    -0.00000000    -0.00000000
     0.38460261    -1.13644280    -0.00000000    -0.00000000
     0.38702149    -1.13759803    -0.00000000    -0.00000000
     0.38944038    -1.13777488     0.00000000     0.00000000
     0.39185926    -1.13697317     0.00000000     0.00000000
     0.39427815    -1.13519362     0.00000000     0.00000000
     0.39669703    -1.13243774     0.00000000     0.00000000
     0.39911591    -1.12870790     0.00000000     0.00000000
     0.40153480    -1.12400732     0.00000000     0.00000000
     0.40395368    -1.11834004     0.00000000     0.00000000
     0.40637257    -1.11171093     0.00000000     0.00000000
     0.40879145    -1.10412570     0.00000000     0.00000000
     0.41121034    -1.09559086     0.00000000     0.00000000
     0.41362922    -1.08611376     0.00000000     0.00000000
     0.41604810    -1.07570254     0.00000000     0.00000000
     0.41846699    -1.06436617     0.00000000     0.00000000
     0.42088587    -1.05211439     0.00000000     0.00000000
     0.42330476    -1.03895774     0.00000000     0.00000000
     0.42572364    -1.02490753     0.00000000     0.00000000
     0.42814253    -1.00997585     0.00000000     0.00000000
     0.43056141    -0.99417555     0.00000000     0.00000000
     0.43298029    -0.97752020     0.00000000     0.00000000
     0.43539918    -0.96002413     0.00000000     0.00000000
     0.43781806    -0.94170240     0.00000000     0.00000000
     0.44023695    -0.92257075     0.00000000     0.00000000
     0.44265583    -0.90264565     0.00000000     0.00000000
     0.44507472    -0.88194423     0.00000000     0.00000000
     0.44749360    -0.86048429     0.00000000     0.00000000
     0.44991248    -0.83828429     0.00000000     0.00000000
     0.45233137    -0.81536333     0.00000000     0.00000000
     0.45475025    -0.79174111     0.00000000     0.00000000
     0.45716914    -0.76743796     0.00000000     0.00000000
     0.45958802    -0.74247477     0.00000000     0.00000000
     0.46200691    -0.71687301     0.00000000     0.00000000
     0.46442579    -0.69065471     0.00000000     0.00000000
     0.46684468    -0.66384241     0.00000000     0.00000000
     0.46926356    -0.63645918     0.00000000     0.00000000
     0.47168244    -0.60852855     0.00000000     0.00000000
     0.47410133    -0.58007457     0.00000000     0.00000000
     0.47652021    -0.55112169     0.00000000     0.00000000
     0.47893910    -0.52169481     0.00000000     0.00000000
     0.48135798    -0.49181925     0.00000000     0.00000000
     0.48377687    -0.46152071     0.00000000     0.00000000
     0.48619575    -0.43082523     0.00000000     0.00000000
     0.48861463    -0.39975922     0.00000000     0.00000000
     0.49103352    -0.36834940     0.00000000     0.00000000
     0.49345240    -0.33662278     0.00000000     0.00000000
     0.49587129    -0.30460665     0.00000000     0.00000000
     0.49829017    -0.27232854     0.00000000     0.00000000
     0.50070906    -0.23981622     0.00000000     0.00000000
     0.50312794    -0.20709764     0.00000000     0.00000000
     0.50554682    -0.17420094     0.00000000     0.00000000
     0.50796571    -0.14115443     0.00000000     0.00000000
     0.51038459    -0.10798651     0.00000000     0.00000000
     0.51280348    -0.07472572     0.00000000     0.00000000
     0.51522236    -0.04140067     0.00000000     0.00000000
     0.51764125    -0.00804000     0.00000000     0.00000000
     0.52006013     0.02532758     0.00000000     0.00000000
     0.52247901     0.05867337     0.00000000     0.00000000
     0.52489790     0.09196870     0.00000000     0.00000000
     0.52731678     0.12518494     0.00000000     0.00000000
     0.52973567     0.15829351     0.00000000     0.00000000
     0.53215455     0.19126594     0.00000000     0.00000000
     0.53457344     0.22407387     0.00000000     0.00000000
     0.53699232     0.25668909     0.00000000     0.00000000
     0.53941120     0.28908354     0.00000000     0.00000000
     0.54183009     0.32122936     0.00000000     0.00000000
     0.54424897     0.35309892     0.00000000     0.00000000
     0.54666786     0.38466479     0.00000000     0.00000000
     0.54908674     0.41589982     0.00000000     0.00000000
     0.55150563     0.44677717     0.00000000     0.00000000
     0.55392451     0.47727026     0.00000000     0.00000000
     0.55634340     0.50735288     0.00000000     0.00000000
     0.55876228     0.53699914     0.00000000     0.00000000
     0.56118116     0.56618357     0.00000000     0.00000000
     0.56360005     0.59488104     0.00000000     0.00000000
     0.56601893     0.62306689     0.00000000     0.00000000
     0.56843782     0.65071687     0.00000000     0.00000000
     0.57085670     0.67780720     0.00000000     0.00000000
     0.57327559     0.70431458     0.00000000     0.00000000
     0.57569447     0.73021622     0.00000000     0.00000000
     0.57811335     0.75548983     0.00000000     0.00000000
     0.58053224     0.78011369     0.00000000     0.00000000
     0.58295112     0.80406661     0.00000000     0.00000000
     0.58537001     0.82732799     0.00000000     0.00000000
     0.58778889     0.84987783     0.00000000     0.00000000
     0.59020778     0.87169673     0.00000000     0.00000000
     0.59262666     0.89276592     0.00000000     0.00000000
     0.59504554     0.91306730     0.00000000     0.00000000
     0.59746443     0.93258339     0.00000000     0.00000000
     0.59988331     0.95129741     0.00000000     0.00000000
     0.60230220     0.96919327     0.00000000     0.00000000
     0.60472108     0.98625557     0.00000000     0.00000000
     0.60713997     1.00246965     0.00000000     0.00000000
     0.60955885     1.01782155     0.00000000     0.00000000
     0.61197773     1.03229807     0.00000000     0.00000000
     0.61439662     1.04588677     0.00000000     0.00000000
     0.61681550     1.05857595     0.00000000     0.00000000
     0.61923439     1.07035471     0.00000000     0.00000000
     0.62165327     1.08121290     0.00000000     0.00000000
     0.62407216     1.09114120     0.00000000     0.00000000
     0.62649104     1.10013106     0.00000000     0.00000000
     0.62890992     1.10817475     0.00000000     0.00000000
     0.63132881     1.11526536     0.00000000     0.00000000
     0.63374769     1.12139678     0.00000000     0.00000000
     0.63616658     1.12656375     0.00000000     0.00000000
     0.63858546     1.13076182     0.00000000     0.00000000
     0.64100435     1.13398737     0.00000000     0.00000000
     0.64342323     1.13623764     0.00000000     0.00000000
     0.64584212     1.13751069     0.00000000     0.00000000
     0.64826100     1.13780542     0.00000000     0.00000000
     0.65067988     1.13712158     0.00000000     0.00000000
     0.65309877     1.13545976     0.00000000     0.00000000
     0.65551765     1.13282139     0.00000000     0.00000000
     0.65793654     1.12920873     0.00000000     0.00000000
     0.66035542     1.12462490     0.00000000     0.00000000
     0.66277431     1.11907384     0.00000000     0.00000000
     0.66519319     1.11256031     0.00000000     0.00000000
     0.66761207     1.10508993     0.00000000     0.00000000
     0.67003096     1.09666912     0.00000000     0.00000000
     0.67244984     1.08730511     0.00000000     0.00000000
     0.67486873     1.07700597     0.00000000     0.00000000
     0.67728761     1.06578055     0.00000000     0.00000000
     0.67970650     1.05363851     0.00000000     0.00000000
     0.68212538     1.04059028     0.00000000     0.00000000
     0.68454426     1.02664710     0.00000000     0.00000000
     0.68696315     1.01182094     0.00000000     0.00000000
     0.68938203     0.99612457     0.00000000     0.00000000
     0.69180092     0.97957149     0.00000000     0.00000000
     0.69421980     0.96217592     0.00000000     0.00000000
     0.69663869     0.94395283     0.00000000     0.00000000
     0.69905757     0.92491790     0.00000000     0.00000000
     0.70147645     0.90508749     0.00000000     0.00000000
     0.70389534     0.88447866     0.00000000     0.00000000
     0.70631422     0.86310914     0.00000000     0.00000000
     0.70873311     0.84099729     0.00000000     0.00000000
     0.71115199     0.81816215     0.00000000     0.00000000
     0.71357088     0.79462335     0.00000000     0.00000000
     0.71598976     0.77040113     0.00000000     0.00000000
     0.71840864     0.74551633     0.00000000     0.00000000
     0.72082753     0.71999035     0.00000000     0.00000000
     0.72324641     0.69384514     0.00000000     0.00000000
     0.72566530     0.66710319     0.00000000     0.00000000
     0.72808418     0.63978749     0.00000000     0.00000000
     0.73050307     0.61192155     0.00000000     0.00000000
     0.73292195     0.58352932     0.00000000     0.00000000
     0.73534084     0.55463523     0.00000000     0.00000000
     0.73775972     0.52526413     0.00000000     0.00000000
     0.74017860     0.49544127     0.00000000     0.00000000
     0.74259749     0.46519231     0.00000000     0.00000000
     0.74501637     0.43454326     0.00000000     0.00000000
     0.74743526     0.40352048     0.00000000     0.00000000
     0.74985414     0.37215065     0.00000000     0.00000000
     0.75227303     0.34046075     0.00000000     0.00000000
     0.75469191     0.30847804     0.00000000     0.00000000
     0.75711079     0.27623003     0.00000000     0.00000000
     0.75952968     0.24374444     0.00000000     0.00000000
     0.76194856     0.21104922     0.00000000     0.00000000
     0.76436745     0.17817249     0.00000000     0.00000000
     0.76678633     0.14514252     0.00000000     0.00000000
     0.76920522     0.11198772     0.00000000     0.00000000
     0.77162410     0.07873660     0.00000000     0.00000000
     0.77404298     0.04541777     0.00000000     0.00000000
     0.77646187     0.01205988     0.00000000     0.00000000
     0.77888075    -0.02130839    -0.00000000    -0.00000000
     0.78129964    -0.05465833    -0.00000000    -0.00000000
     0.78371852    -0.08796126    -0.00000000    -0.00000000
     0.78613741    -0.12118854    -0.00000000    -0.00000000
