#           time (fs)    |     mu_x (e.angstrom)   |     mu_y (e.angstrom)   |     mu_z (e.angstrom)   |
        0.000000000000000       -0.000000000000000       -0.000000000000000        0.000000000000000
        0.002418884326505       -0.000000000107073        0.000000002425949        0.000031588856117
        0.004837768653010       -0.000000000428461        0.000000009701128        0.000063165954450
        0.007256652979515       -0.000000000958518        0.000000021707458        0.000094241312646
        0.009675537306020       -0.000000001699475        0.000000038479200        0.000125305537072
        0.012094421632525       -0.000000002633251        0.000000059629688        0.000155366409094
        0.014513305959030       -0.000000003771140        0.000000085385496        0.000185417379254
        0.016932190285535       -0.000000005076208        0.000000114946019        0.000213979829532
        0.019351074612040       -0.000000006575367        0.000000148878506        0.000242534179500
        0.021769958938545       -0.000000008206974        0.000000185835859        0.000269139071357
        0.024188843265050       -0.000000010019596        0.000000226862713        0.000295738178555
        0.026607727591555       -0.000000011921788        0.000000269950167        0.000319958493555
        0.029026611918060       -0.000000013989097        0.000000316740765        0.000344175782213
        0.031445496244565       -0.000000016096122        0.000000364469773        0.000365623396945
        0.033864380571070       -0.000000018349816        0.000000415477863        0.000387071100804
        0.036283264897575       -0.000000020587763        0.000000466175206        0.000405402914815
        0.038702149224080       -0.000000022951693        0.000000519676903        0.000423738193120
        0.041121033550585       -0.000000025240342        0.000000571526446        0.000438661512697
        0.043539917877090       -0.000000027632391        0.000000625662724        0.000453591824476
        0.045958802203595       -0.000000029887213        0.000000676750849        0.000464868919436
        0.048377686530100       -0.000000032221331        0.000000729573573        0.000476156573477
        0.050796570856605       -0.000000034355623        0.000000777937284        0.000483608337863
        0.053215455183110       -0.000000036543973        0.000000827457784        0.000491074149457
        0.055634339509615       -0.000000038471050        0.000000871134435        0.000494582811750
        0.058053223836120       -0.000000040426221        0.000000915373547        0.000498108811928
        0.060472108162625       -0.000000042061641        0.000000952451082        0.000497619655890
        0.062890992489130       -0.000000043698875        0.000000989489561        0.000497150814324
        0.065309876815635       -0.000000044962627        0.000001018156162        0.000492672887604
        0.067728761142140       -0.000000046202015        0.000001046184363        0.000488217826293
        0.070147645468645       -0.000000047020647        0.000001064776419        0.000479823630236
        0.072566529795150       -0.000000047789241        0.000001082142136        0.000471454321316
        0.074985414121655       -0.000000048097847        0.000001089189451        0.000459278491655
        0.077404298448160       -0.000000048331648        0.000001094442871        0.000447128948881
        0.079823182774665       -0.000000048075705        0.000001088710116        0.000431365953048
        0.082242067101170       -0.000000047721470        0.000001080644875        0.000415629942453
        0.084660951427675       -0.000000046858456        0.000001061168339        0.000396530834720
        0.087079835754180       -0.000000045875302        0.000001038857749        0.000377458645413
        0.089498720080685       -0.000000044376073        0.000001004976549        0.000355326935844
        0.091917604407190       -0.000000042736821        0.000000967804181        0.000333221266577
        0.094336488733695       -0.000000040586711        0.000000919185206        0.000308407973510
        0.096755373060200       -0.000000038278953        0.000000866869087        0.000283619004387
        0.099174257386705       -0.000000035478566        0.000000803525070        0.000256516972744
        0.101593141713210       -0.000000032505422        0.000000736134924        0.000229436703944
        0.104012026039715       -0.000000029071106        0.000000658435171        0.000200474282835
        0.106430910366220       -0.000000025451657        0.000000576402244        0.000171530233377
        0.108849794692725       -0.000000021415634        0.000000485075708        0.000141164416082
        0.111268679019230       -0.000000017185010        0.000000389194875        0.000110812785261
        0.113687563345735       -0.000000012595164        0.000000285325417        0.000079521922602
        0.116106447672240       -0.000000007804287        0.000000176749421        0.000048240324625
        0.118525331998745       -0.000000002723609        0.000000061763242        0.000016516528857
        0.120944216325250        0.000000002561410       -0.000000058010915       -0.000015203582664
        0.123363100651755        0.000000008055719       -0.000000182365502       -0.000046862222098
        0.125781984978260        0.000000013754519       -0.000000311517848       -0.000078523318916
        0.128200869304765        0.000000019572266       -0.000000443198001       -0.000109620584114
        0.130619753631270        0.000000025591503       -0.000000579614237       -0.000140726894200
        0.133038637957775        0.000000031631025       -0.000000716317062       -0.000170776228089
        0.135457522284280        0.000000037865940       -0.000000857624073       -0.000200841509037
        0.137876406610785        0.000000044015900       -0.000000996827372       -0.000229373622888
        0.140295290937290        0.000000050352160       -0.000001140434990       -0.000257928755953
        0.142714175263795        0.000000056493591       -0.000001279443562       -0.000284498936372
        0.145133059590300        0.000000062809373       -0.000001422591825       -0.000311099222738
        0.147551943916805        0.000000068817927       -0.000001558588443       -0.000335294224781
        0.149970828243310        0.000000074986207       -0.000001698399477       -0.000359526270981
        0.152389712569815        0.000000080734565       -0.000001828499594       -0.000380970691173
        0.154808596896320        0.000000086625564       -0.000001962033152       -0.000402458777704
        0.157227481222825        0.000000091985970       -0.000002083342293       -0.000420820809518
        0.159646365549330        0.000000097469720       -0.000002207653890       -0.000439232645357
        0.162065249875835        0.000000102316575       -0.000002317326611       -0.000454229129943
        0.164484134202340        0.000000107265550       -0.000002429527149       -0.000469280905881
        0.166903018528845        0.000000111478037       -0.000002524826419       -0.000480681602372
        0.169321902855350        0.000000115769793       -0.000002622142128       -0.000492142267519
        0.171740787181855        0.000000119234460       -0.000002700497972       -0.000499773279887
        0.174159671508360        0.000000122754243       -0.000002780329502       -0.000507467978279
        0.176578555834865        0.000000125367506       -0.000002839395707       -0.000511214289261
        0.178997440161370        0.000000128010772       -0.000002899375190       -0.000515026906998
        0.181416324487875        0.000000129681284       -0.000002937082955       -0.000514833983849
        0.183835208814380        0.000000131356075       -0.000002975127883       -0.000514708771328
        0.186254093140885        0.000000132006910       -0.000002989735291       -0.000510583222837
        0.188672977467390        0.000000132636047       -0.000003004098109       -0.000506525471280
        0.191091861793895        0.000000132206654       -0.000002994234393       -0.000498534750421
        0.193510746120400        0.000000131729690       -0.000002983546777       -0.000490610516747
        0.195929630446905        0.000000130177580       -0.000002948250426       -0.000478881678217
        0.198348514773410        0.000000128552482       -0.000002911561288       -0.000467216567141
        0.200767399099915        0.000000125854602       -0.000002850311158       -0.000451934103708
        0.203186283426420        0.000000123059119       -0.000002787117545       -0.000436711130588
        0.205605167752925        0.000000119212889       -0.000002699856247       -0.000418113926372
        0.208024052079430        0.000000115245572       -0.000002610126420       -0.000399570498423
        0.210442936405935        0.000000110269553       -0.000002497275407       -0.000377947950729
        0.212861820732440        0.000000105150407       -0.000002381463519       -0.000356372017748
        0.215280705058945        0.000000099084584       -0.000002243929425       -0.000332059391699
        0.217699589385450        0.000000092855328       -0.000002102981370       -0.000307784829990
        0.220118473711955        0.000000085760996       -0.000001942153347       -0.000281157921725
        0.222537358038460        0.000000078484926       -0.000001777503512       -0.000254559226459
        0.224956242364965        0.000000070444171       -0.000001595241434       -0.000226028420973
        0.227375126691470        0.000000062205606       -0.000001408800259       -0.000197514792488
        0.229794011017975        0.000000053320386       -0.000001207413857       -0.000167518611052
        0.232212895344480        0.000000044223724       -0.000001001546260       -0.000137527529469
        0.234631779670985        0.000000034614556       -0.000000783765421       -0.000106525768944
        0.237050663997490        0.000000024782926       -0.000000561260332       -0.000075516158884
        0.239469548323995        0.000000014587206       -0.000000330196948       -0.000043982730954
        0.241888432650500        0.000000004160747       -0.000000094228358       -0.000012427823843
        0.244307316977005       -0.000000006469287        0.000000146669721        0.000019156593765
        0.246726201303510       -0.000000017335493        0.000000392589637        0.000050776588224
        0.249145085630015       -0.000000028235112        0.000000639591830        0.000081931974238
        0.251563969956520       -0.000000039373432        0.000000891666792        0.000113137273553
        0.253982854283025       -0.000000050368043        0.000001140819355        0.000143391644554
        0.256401738609530       -0.000000061600960        0.000001395029409        0.000173710261489
        0.258820622936035       -0.000000072508980        0.000001642220365        0.000202606898691
        0.261239507262540       -0.000000083652001        0.000001894387664        0.000231581858694
        0.263658391589045       -0.000000094287911        0.000002135416016        0.000258686269621
        0.266077275915550       -0.000000105152661        0.000002381274872        0.000285882567391
        0.268496160242055       -0.000000115330201        0.000002611922910        0.000310789076673
        0.270915044568560       -0.000000125727652        0.000002847192921        0.000335800266296
        0.273333928895065       -0.000000135263098        0.000003063300384        0.000358138136085
        0.275752813221570       -0.000000145006879        0.000003283761379        0.000380592455370
        0.278171697548075       -0.000000153722341        0.000003481300173        0.000400031443698
        0.280590581874580       -0.000000162632072        0.000003682867665        0.000419597381050
        0.283009466201085       -0.000000170358761        0.000003858015799        0.000435852655569
        0.285428350527590       -0.000000178263348        0.000004036815619        0.000452243876819
        0.287847234854095       -0.000000184844745        0.000004186029043        0.000465080211727
        0.290266119180600       -0.000000191585578        0.000004338469801        0.000478059774583
        0.292685003507105       -0.000000196880457        0.000004458550826        0.000487294969925
        0.295103887833610       -0.000000202314459        0.000004581392902        0.000496678765034
        0.297522772160115       -0.000000206199701        0.000004669553937        0.000502186239828
        0.299941656486620       -0.000000210202159        0.000004759973709        0.000507845609607
        0.302360540813125       -0.000000212575304        0.000004813895112        0.000509556133124
        0.304779425139630       -0.000000215042445        0.000004869543227        0.000511419632331
        0.307198309466135       -0.000000215823941        0.000004887424158        0.000509322171262
        0.309617193792640       -0.000000216675190        0.000004906476723        0.000507376446614
        0.312036078119145       -0.000000215810278        0.000004887077985        0.000501518119466
        0.314454962445650       -0.000000214990163        0.000004868279669        0.000495807899145
        0.316873846772155       -0.000000212450383        0.000004810957668        0.000486293042874
        0.319292731098660       -0.000000209930040        0.000004753655828        0.000476920240399
        0.321711615425165       -0.000000205714303        0.000004658386910        0.000463908607811
        0.324130499751670       -0.000000201492556        0.000004562556018        0.000451030558192
        0.326549384078175       -0.000000195627771        0.000004429950602        0.000434734677758
        0.328968268404680       -0.000000189731760        0.000004296206378        0.000418561536959
        0.331387152731185       -0.000000182272987        0.000004127512479        0.000399243279281
        0.333806037057690       -0.000000174758319        0.000003957115332        0.000380034630578
        0.336224921384195       -0.000000165788456        0.000003754211244        0.000358001037540
        0.338643805710700       -0.000000156738878        0.000003549058789        0.000336061760127
        0.341062690037205       -0.000000146367851        0.000003314434878        0.000311660203679
        0.343481574363710       -0.000000135894439        0.000003077043482        0.000287335669796
        0.345900458690215       -0.000000124257932        0.000002813773230        0.000260948417109
        0.348319343016720       -0.000000112497800        0.000002547248731        0.000234619093772
        0.350738227343225       -0.000000099755517        0.000002258949352        0.000206657364082
        0.353157111669730       -0.000000086870064        0.000001966947282        0.000178732904077
        0.355575995996235       -0.000000073203554        0.000001657730425        0.000149630509783
        0.357994880322740       -0.000000059376266        0.000001344406247        0.000120543423874
        0.360413764649245       -0.000000044986343        0.000001018819461        0.000090750094228
        0.362832648975750       -0.000000030420193        0.000000688769509        0.000060949102344
        0.365251533302255       -0.000000015523980        0.000000351729324        0.000030923592334
        0.367670417628760       -0.000000000438444        0.000000009923301        0.000000866755808
        0.370089301955265        0.000000014733908       -0.000000333359081       -0.000028930154467
        0.372508186281770        0.000000030106159       -0.000000681653040       -0.000058782414766
        0.374927070608275        0.000000045315024       -0.000001025752292       -0.000087894923871
        0.377345954934780        0.000000060731709       -0.000001375048851       -0.000117086817549
        0.379764839261285        0.000000075731768       -0.000001714411064       -0.000145071003796
        0.382183723587790        0.000000090944809       -0.000002059093928       -0.000173158263564
        0.384602607914295        0.000000105488989       -0.000002388125784       -0.000199588779692
        0.387021492240800        0.000000120248480       -0.000002722537617       -0.000226145353128
        0.389440376567305        0.000000134091991       -0.000003035697756       -0.000250621814546
        0.391859260893810        0.000000148150273       -0.000003354232300       -0.000275246255108
        0.394278145220315        0.000000161054677       -0.000003646123396       -0.000297399226805
        0.396697029546820        0.000000174170439       -0.000003943318320       -0.000319720689251
        0.399115913873325        0.000000185907685       -0.000004208778344       -0.000339217183058
        0.401534798199830        0.000000197850033       -0.000004479407276       -0.000358900934899
        0.403953682526335        0.000000208206386       -0.000004713598428       -0.000375449336580
        0.406372566852840        0.000000218758808       -0.000004952760649       -0.000392201704928
        0.408791451179345        0.000000227538615       -0.000005151254442       -0.000405556059613
        0.411210335505850        0.000000236502775       -0.000005354460732       -0.000419128741694
        0.413629219832355        0.000000243531989       -0.000005513317788       -0.000429092336140
        0.416048104158860        0.000000250731288       -0.000005676570946       -0.000439286011648
        0.418466988485365        0.000000255860700       -0.000005792414101       -0.000445714202713
        0.420885872811870        0.000000261143537       -0.000005912282754       -0.000452381396977
        0.423304757138375        0.000000264251656       -0.000005982362192       -0.000455183647240
        0.425723641464880        0.000000267494339       -0.000006056046591       -0.000458230805651
        0.428142525791385        0.000000268489864       -0.000006078295816       -0.000457371899170
        0.430561410117890        0.000000269599108       -0.000006103684430       -0.000456760645310
        0.432980294444395        0.000000268422953       -0.000006076766041       -0.000452261068936
        0.435399178770900        0.000000267337928       -0.000006052481901       -0.000448008631199
        0.437818063097405        0.000000263964753       -0.000005975822292       -0.000439944119395
        0.440236947423910        0.000000260658638       -0.000005901258194       -0.000432122923362
        0.442655831750415        0.000000255097860       -0.000005775070448       -0.000420623176964
        0.445074716076920        0.000000249578875       -0.000005650412294       -0.000409359613263
        0.447493600403425        0.000000241875133       -0.000005475706750       -0.000394606214906
        0.449912484729930        0.000000234187017       -0.000005301944488       -0.000380078604498
        0.452331369056435        0.000000224420078       -0.000005080526640       -0.000362302165256
        0.454750253382940        0.000000214642012       -0.000004859452462       -0.000344737955944
        0.457169137709445        0.000000202926109       -0.000004593908059       -0.000324214539021
        0.459588022035950        0.000000191172061       -0.000004328101720       -0.000303886778214
        0.462006906362455        0.000000177654672       -0.000004021769129       -0.000280933656020
        0.464425790688960        0.000000164072184       -0.000003714570445       -0.000258156795302
        0.466844675015465        0.000000148932259       -0.000003371500566       -0.000233127605877
        0.469263559341970        0.000000133700674       -0.000003026969379       -0.000208252702580
        0.471682443668475        0.000000117146331       -0.000002651873576       -0.000181532079895
