#             time (fs)      |   total net charge (e)  |   charge (atom_1) (e)   |   charge (atom_2) (e)   |        ...        |   charge (atom_N) (e)   |
          0.000000000000000       -0.000000000000000       -0.000000000000000        0.000000000000000
          0.120944216325250        0.000000000006667        0.000020411980504       -0.000020411973837
          0.241888432650500       -0.000000000021183        0.000016578132579       -0.000016578153763
          0.362832648975750       -0.000000000080402       -0.000080791981953        0.000080791901551
          0.483776865301000       -0.000000000165183        0.000054552314256       -0.000054552479439
          0.604721081626250       -0.000000000274718       -0.000097609425742        0.000097609151025
          0.725665297951500       -0.000000000396651        0.000317989440652       -0.000317989837302
          0.846609514276750       -0.000000000536795       -0.000429360278184        0.000429359741389
          0.967553730602000       -0.000000000673472        0.000339966770978       -0.000339967444450
          1.088497946927250       -0.000000000821383       -0.000459938215485        0.000459937394102
          1.209442163252500       -0.000000000954104        0.000761775256334       -0.000761776210438
          1.330386379577750       -0.000000001090496       -0.000706353276734        0.000706352186238
          1.451330595903000       -0.000000001203301        0.000432150954459       -0.000432152157761
          1.572274812228250       -0.000000001309524       -0.000538926798937        0.000538925489413
          1.693219028553500       -0.000000001391176        0.000700054354305       -0.000700055745481
          1.814163244878750       -0.000000001457092       -0.000283225783198        0.000283224326106
          1.935107461204000       -0.000000001499126       -0.000163495263310        0.000163493764184
          2.056051677529250       -0.000000001518422        0.000019626226929       -0.000019627745351
          2.176995893854500       -0.000000001514605        0.000001303298127       -0.000001304812733
          2.297940110179750       -0.000000001487898        0.000600610420447       -0.000600611908345
          2.418884326505000       -0.000000001436369       -0.000857026406388        0.000857024970019
          2.539828542830250       -0.000000001367914        0.000413950963214       -0.000413952331128
          2.660772759155500       -0.000000001274030       -0.000370548354723        0.000370547080693
          2.781716975480750       -0.000000001170189        0.000884573091262       -0.000884574261451
          2.902661191806000       -0.000000001041996       -0.000717820919186        0.000717819877190
          3.023605408131250       -0.000000000911714        0.000020998104704       -0.000020999016418
          3.144549624456500       -0.000000000768297       -0.000086799950014        0.000086799181717
          3.265493840781750       -0.000000000627476        0.000533834257551       -0.000533834885027
          3.386438057107000       -0.000000000484148       -0.000071765868883        0.000071765384735
          3.507382273432250       -0.000000000348337       -0.000561973000824        0.000561972652487
          3.628326489757500       -0.000000000230108        0.000189343637661       -0.000189343867769
          3.749270706082750       -0.000000000125865        0.000208122434518       -0.000208122560383
          3.870214922408000       -0.000000000049706        0.000422049266187       -0.000422049315894
          3.991159138733250        0.000000000007122       -0.000793609897469        0.000793609904591
          4.112103355058500        0.000000000020243        0.000126153155363       -0.000126153135120
          4.233047571383750        0.000000000006943        0.000117557854214       -0.000117557847271
          4.353991787709000       -0.000000000049036        0.000596090404239       -0.000596090453274
          4.474936004034250       -0.000000000133650       -0.000598165203125        0.000598165069475
          4.595880220359500       -0.000000000260512       -0.000275212619404        0.000275212358892
          4.716824436684750       -0.000000000413425        0.000304522301842       -0.000304522715267
          4.837768653010000       -0.000000000590563        0.000352298821977       -0.000352299412540
          4.958712869335250       -0.000000000786924        0.000075450299897       -0.000075451086821
          5.079657085660500       -0.000000000986430       -0.000995667852649        0.000995666866219
          5.200601301985750       -0.000000001188408        0.000698275834758       -0.000698277023166
          5.321545518311000       -0.000000001371152       -0.000082258965489        0.000082257594337
          5.442489734636251       -0.000000001537072        0.000709814955763       -0.000709816492835
          5.563433950961501       -0.000000001663605       -0.001243311450849        0.001243309787244
          5.684378167286750       -0.000000001753987        0.000334370220558       -0.000334371974545
          5.805322383612000       -0.000000001796918        0.000356994091848       -0.000356995888766
          5.926266599937250       -0.000000001791977        0.000282053451829       -0.000282055243806
          6.047210816262500       -0.000000001738281       -0.000323237964473        0.000323236226192
          6.168155032587750       -0.000000001640641       -0.000897811554313        0.000897809913671
          6.289099248913001       -0.000000001501753        0.001146386203298       -0.001146387705051
          6.410043465238251       -0.000000001335623       -0.000129737095516        0.000129735759893
          6.530987681563500       -0.000000001140811        0.000250960570523       -0.000250961711334
          6.651931897888750       -0.000000000943331       -0.001304246618714        0.001304245675382
          6.772876114214000       -0.000000000737641        0.000820224091841       -0.000820224829482
          6.893820330539250       -0.000000000545464        0.000413135292261       -0.000413135837725
          7.014764546864500       -0.000000000367767        0.000104493831833       -0.000104494199600
          7.135708763189751       -0.000000000221266       -0.001037031484329        0.001037031263063
          7.256652979515001       -0.000000000100050        0.000039418787916       -0.000039418887966
          7.377597195840250       -0.000000000014470        0.000939156824471       -0.000939156838941
          7.498541412165500        0.000000000031126        0.000183474504552       -0.000183474473426
          7.619485628490750        0.000000000040619       -0.000888896614100        0.000888896654719
          7.740429844816000        0.000000000020497       -0.000497719518034        0.000497719538531
          7.861374061141250       -0.000000000033934        0.000932850733256       -0.000932850767191
          7.982318277466501       -0.000000000117696        0.000698253325193       -0.000698253442890
          8.103262493791750       -0.000000000226590       -0.000924012359195        0.000924012132606
          8.224206710117000       -0.000000000343120       -0.000692689271272        0.000692688928152
          8.345150926442249       -0.000000000479584        0.000388441740354       -0.000388442219938
          8.466095142767500       -0.000000000618700        0.001471862617060       -0.001471863235760
          8.587039359092751       -0.000000000768049       -0.000982453300091        0.000982452532042
          8.707983575418000       -0.000000000900046       -0.000650561654671        0.000650560754625
          8.828927791743251       -0.000000001033156       -0.000383737006897        0.000383735973741
          8.949872008068500       -0.000000001149401        0.001978537066864       -0.001978538216265
          9.070816224393750       -0.000000001258663       -0.000577676953225        0.000577675694562
          9.191760440718999       -0.000000001342768       -0.000871987947294        0.000871986604526
          9.312704657044250       -0.000000001408426       -0.000677262288586        0.000677260880159
          9.433648873369501       -0.000000001452303        0.001541734441069       -0.001541735893372
          9.554593089694750       -0.000000001474245        0.000625108890751       -0.000625110364996
          9.675537306020001       -0.000000001472683       -0.001481925367001        0.001481923894318
          9.796481522345250       -0.000000001448546       -0.000484882832287        0.000484881383741
          9.917425738670500       -0.000000001400240        0.000573507997114       -0.000573509397354
         10.038369954995749       -0.000000001332492        0.001742896381250       -0.001742897713742
         10.159314171321000       -0.000000001237669       -0.001526303573463        0.001526302335794
         10.280258387646251       -0.000000001134832       -0.000703434750922        0.000703433616089
         10.401202603971500       -0.000000001011687        0.000079231390065       -0.000079232401752
         10.522146820296751       -0.000000000883012        0.001890825227928       -0.001890826110940
         10.643091036622000       -0.000000000734388       -0.000628516000355        0.000628515265966
         10.764035252947250       -0.000000000590240       -0.001335340169172        0.001335339578932
         10.884979469272501       -0.000000000449840       -0.000054686199947        0.000054685750106
         11.005923685597750       -0.000000000316543        0.001470444666587       -0.001470444983129
         11.126867901923001       -0.000000000190879        0.000450372232366       -0.000450372423245
         11.247812118248250       -0.000000000078074       -0.001648645864512        0.001648645786438
         11.368756334573501       -0.000000000002176       -0.000349365080766        0.000349365078590
         11.489700550898750        0.000000000054370        0.001025494422381       -0.001025494368012
         11.610644767224001        0.000000000075798        0.001166961987947       -0.001166961912149
         11.731588983549251        0.000000000073472       -0.001388611201940        0.001388611275411
         11.852533199874500        0.000000000017402       -0.000860315130949        0.000860315148351
         11.973477416199751       -0.000000000063651        0.000705315449825       -0.000705315513476
         12.094421632525000       -0.000000000183336        0.001365604187414       -0.001365604370749
         12.215365848850251       -0.000000000330141       -0.000576180650726        0.000576180320585
         12.336310065175500       -0.000000000507959       -0.001566689891707        0.001566689383748
         12.457254281500751       -0.000000000698924        0.000635995977363       -0.000635996676288
         12.578198497826001       -0.000000000898951        0.000996771882070       -0.000996772781021
         12.699142714151250       -0.000000001102451        0.000596676104383       -0.000596677206834
         12.820086930476501       -0.000000001286298       -0.002156788389845        0.002156787103547
         12.941031146801750       -0.000000001453118        0.000389089448620       -0.000389090901739
         13.061975363127001       -0.000000001586161        0.000809911887278       -0.000809913473439
         13.182919579452250       -0.000000001681866        0.001074126561712       -0.001074128243578
         13.303863795777501       -0.000000001729510       -0.001556959790519        0.001556958061009
         13.424808012102751       -0.000000001730225       -0.000927531666604        0.000927529936379
         13.545752228428000       -0.000000001683070        0.001440551253842       -0.001440552936912
         13.666696444753251       -0.000000001589695        0.000684495458909       -0.000684497048604
         13.787640661078500       -0.000000001455243       -0.000309016481066        0.000309015025823
         13.908584877403751       -0.000000001290119       -0.002107221886865        0.002107220596746
         14.029529093729000       -0.000000001102950        0.001352624738034       -0.001352625840984
         14.150473310054251       -0.000000000899908        0.001008955467883       -0.001008956367792
         14.271417526379501       -0.000000000694319        0.000132304545411       -0.000132305239731
         14.392361742704750       -0.000000000502601       -0.002108332538942        0.002108332036341
         14.513305959030001       -0.000000000322026        0.000222685555162       -0.000222685877189
         14.634250175355250       -0.000000000165840        0.001717504548648       -0.001717504714488
         14.755194391680501       -0.000000000043372        0.000417038619121       -0.000417038662493
         14.876138608005750        0.000000000040711       -0.001779513154629        0.001779513195340
         14.997082824331001        0.000000000101439       -0.000899725320242        0.000899725421681
         15.118027040656251        0.000000000114830        0.001854172258032       -0.001854172143201
         15.238971256981500        0.000000000095884        0.001112252950296       -0.001112252854412
         15.359915473306751        0.000000000039075       -0.001483732390993        0.001483732430068
         15.480859689632000       -0.000000000028020       -0.001637416677760        0.001637416649741
         15.601803905957251       -0.000000000135943        0.001252264643796       -0.001252264779738
         15.722748122282500       -0.000000000255555        0.002081255841892       -0.002081256097447
         15.843692338607751       -0.000000000395332       -0.001161145433149        0.001161145037817
         15.964636554933001       -0.000000000524727       -0.001888202409928        0.001888201885201
         16.085580771258250       -0.000000000669455        0.000047861622019       -0.000047862291474
         16.206524987583499       -0.000000000809837        0.002960826444556       -0.002960827254393
         16.327469203908752       -0.000000000947017       -0.000617506351224        0.000617505404207
         16.448413420234001       -0.000000001063105       -0.001848937268788        0.001848936205682
         16.569357636559250       -0.000000001166387       -0.001140529390152        0.001140528223765
         16.690301852884499       -0.000000001256651        0.003002383291199       -0.003002384547850
         16.811246069209751       -0.000000001326947        0.000617910842466       -0.000617912169413
         16.932190285535000       -0.000000001375292       -0.002028889754994        0.002028888379702
         17.053134501860249       -0.000000001398177       -0.001592030910247        0.001592029512070
         17.174078718185502       -0.000000001399363        0.001856903441588       -0.001856904840951
         17.295022934510751       -0.000000001377454        0.002302366459699       -0.002302367837152
         17.415967150836000       -0.000000001329967       -0.002096897199457        0.002096895869490
         17.536911367161249       -0.000000001268133       -0.001721246448016        0.001721245179883
         17.657855583486501       -0.000000001180547        0.000501664241886       -0.000501665422433
         17.778799799811750       -0.000000001078376        0.003184778084601       -0.003184779162976
         17.899744016136999       -0.000000000949637       -0.001187037826583        0.001187036876946
         18.020688232462252       -0.000000000821291       -0.002180489176216        0.002180488354926
         18.141632448787501       -0.000000000685254       -0.000311330423524        0.000311329738270
         18.262576665112750       -0.000000000543019        0.002906455658897       -0.002906456201916
         18.383520881437999       -0.000000000394956        0.000365827621616       -0.000365828016573
         18.504465097763251       -0.000000000251672       -0.002507466591843        0.002507466340171
         18.625409314088500       -0.000000000138592       -0.000927528060505        0.000927527921913
         18.746353530413749       -0.000000000026878        0.002134802027178       -0.002134802054056
         18.867297746739002        0.000000000056283        0.001665719015815       -0.001665718959532
         18.988241963064251        0.000000000128725       -0.002176357368553        0.002176357497278
         19.109186179389500        0.000000000139668       -0.001598089046612        0.001598089186280
         19.230130395714749        0.000000000139724        0.001305093351559       -0.001305093211835
         19.351074612040001        0.000000000092797        0.002326680231201       -0.002326680138404
         19.472018828365250        0.000000000021648       -0.001199014773261        0.001199014794909
         19.592963044690499       -0.000000000104487       -0.002276446551500        0.002276446447013
         19.713907261015752       -0.000000000244659        0.000639133139286       -0.000639133383945
         19.834851477341001       -0.000000000417421        0.002215995238047       -0.002215995655468
         19.955795693666250       -0.000000000611431        0.000289720351119       -0.000289720962551
         20.076739909991499       -0.000000000810822       -0.002902675409798        0.002902674598976
         20.197684126316751       -0.000000001010847        0.000171054139213       -0.000171055150059
         20.318628342642000       -0.000000001200897        0.001625302413317       -0.001625303614214
         20.439572558967249       -0.000000001374939        0.001620354604854       -0.001620355979794
         20.560516775292502       -0.000000001508421       -0.002728384453605        0.002728382945185
         20.681460991617751       -0.000000001610668       -0.000936628354558        0.000936626743889
         20.802405207943000       -0.000000001665793        0.001633950797112       -0.001633952462905
         20.923349424268253       -0.000000001673394        0.001745583494227       -0.001745585167620
         21.044293640593501       -0.000000001632469       -0.001197188044828        0.001197186412359
         21.165237856918750       -0.000000001543526       -0.002646646631649        0.002646645088122
         21.286182073243999       -0.000000001419879        0.001719296324579       -0.001719297744458
         21.407126289569252       -0.000000001254531        0.001726335965921       -0.001726337220452
         21.528070505894501       -0.000000001068275        0.000084617846737       -0.000084618915012
         21.649014722219750       -0.000000000870104       -0.003205496687500        0.003205495817396
         21.769958938545003       -0.000000000668841        0.000513894176213       -0.000513894845054
         21.890903154870252       -0.000000000468498        0.002395122358910       -0.002395122827408
         22.011847371195501       -0.000000000286649        0.000724256498378       -0.000724256785027
         22.132791587520749       -0.000000000138602       -0.002782666771168        0.002782666632566
         22.253735803846002        0.000000000000885       -0.001153990060682        0.001153990061567
         22.374680020171251        0.000000000085173        0.002674681957574       -0.002674681872401
         22.495624236496500        0.000000000146717        0.001590054459860       -0.001590054313143
         22.616568452821753        0.000000000154743       -0.002154209571421        0.002154209726164
         22.737512669147002        0.000000000161325       -0.002454253678661        0.002454253839986
         22.858456885472251        0.000000000096526        0.002060557031391       -0.002060556934865
         22.979401101797500        0.000000000025777        0.002711521024506       -0.002711520998729
         23.100345318122752       -0.000000000083679       -0.001383274191643        0.001383274107964
