#     time (fs)  |  E_x (eV/ang)  | E_y (eV/ang) | E_z (eV/ang)
     0.00000000     0.00000000     0.00000000     0.60781968
     0.00241888     0.02831802     0.02831802     0.60748966
     0.00483777     0.05660529     0.05660529     0.60649996
     0.00725665     0.08483109     0.08483109     0.60485165
     0.00967554     0.11296477     0.11296477     0.60254653
     0.01209442     0.14097578     0.14097578     0.59958709
     0.01451331     0.16883370     0.16883370     0.59597655
     0.01693219     0.19650829     0.19650829     0.59171883
     0.01935107     0.22396948     0.22396948     0.58681856
     0.02176996     0.25118746     0.25118746     0.58128105
     0.02418884     0.27813268     0.27813268     0.57511232
     0.02660773     0.30477586     0.30477586     0.56831907
     0.02902661     0.33108809     0.33108809     0.56090868
     0.03144550     0.35704078     0.35704078     0.55288918
     0.03386438     0.38260576     0.38260576     0.54426930
     0.03628326     0.40775526     0.40775526     0.53505838
     0.03870215     0.43246197     0.43246197     0.52526644
     0.04112103     0.45669907     0.45669907     0.51490411
     0.04353992     0.48044023     0.48044023     0.50398263
     0.04595880     0.50365967     0.50365967     0.49251387
     0.04837769     0.52633218     0.52633218     0.48051029
     0.05079657     0.54843315     0.54843315     0.46798491
     0.05321546     0.56993856     0.56993856     0.45495134
     0.05563434     0.59082506     0.59082506     0.44142373
     0.05805322     0.61106998     0.61106998     0.42741677
     0.06047211     0.63065134     0.63065134     0.41294568
     0.06289099     0.64954786     0.64954786     0.39802616
     0.06530988     0.66773902     0.66773902     0.38267442
     0.06772876     0.68520508     0.68520508     0.36690713
     0.07014765     0.70192707     0.70192707     0.35074141
     0.07256653     0.71788682     0.71788682     0.33419482
     0.07498541     0.73306701     0.73306701     0.31728532
     0.07740430     0.74745115     0.74745115     0.30003127
     0.07982318     0.76102363     0.76102363     0.28245141
     0.08224207     0.77376970     0.77376970     0.26456484
     0.08466095     0.78567552     0.78567552     0.24639098
     0.08707984     0.79672817     0.79672817     0.22794955
     0.08949872     0.80691563     0.80691563     0.20926059
     0.09191760     0.81622686     0.81622686     0.19034439
     0.09433649     0.82465174     0.82465174     0.17122149
     0.09675537     0.83218111     0.83218111     0.15191267
     0.09917426     0.83880681     0.83880681     0.13243887
     0.10159314     0.84452164     0.84452164     0.11282126
     0.10401203     0.84931938     0.84931938     0.09308114
     0.10643091     0.85319484     0.85319484     0.07323994
     0.10884979     0.85614381     0.85614381     0.05331921
     0.11126868     0.85816308     0.85816308     0.03334057
     0.11368756     0.85925045     0.85925045     0.01332573
     0.11610645     0.85940475     0.85940475    -0.00670358
     0.11852533     0.85862582     0.85862582    -0.02672561
     0.12094422     0.85691449     0.85691449    -0.04671862
     0.12336310     0.85427262     0.85427262    -0.06666089
     0.12578198     0.85070309     0.85070309    -0.08653078
     0.12820087     0.84620977     0.84620977    -0.10630670
     0.13061975     0.84079754     0.84079754    -0.12596719
     0.13303864     0.83447227     0.83447227    -0.14549088
     0.13545752     0.82724084     0.82724084    -0.16485658
     0.13787641     0.81911110     0.81911110    -0.18404326
     0.14029529     0.81009187     0.81009187    -0.20303009
     0.14271418     0.80019295     0.80019295    -0.22179645
     0.14513306     0.78942510     0.78942510    -0.24032195
     0.14755194     0.77779999     0.77779999    -0.25858648
     0.14997083     0.76533026     0.76533026    -0.27657022
     0.15238971     0.75202945     0.75202945    -0.29425362
     0.15480860     0.73791200     0.73791200    -0.31161748
     0.15722748     0.72299324     0.72299324    -0.32864296
     0.15964637     0.70728937     0.70728937    -0.34531156
     0.16206525     0.69081745     0.69081745    -0.36160518
     0.16448413     0.67359536     0.67359536    -0.37750612
     0.16690302     0.65564180     0.65564180    -0.39299713
     0.16932190     0.63697628     0.63697628    -0.40806138
     0.17174079     0.61761905     0.61761905    -0.42268251
     0.17415967     0.59759114     0.59759114    -0.43684464
     0.17657856     0.57691429     0.57691429    -0.45053240
     0.17899744     0.55561097     0.55561097    -0.46373091
     0.18141632     0.53370430     0.53370430    -0.47642586
     0.18383521     0.51121808     0.51121808    -0.48860344
     0.18625409     0.48817672     0.48817672    -0.50025045
     0.18867298     0.46460524     0.46460524    -0.51135423
     0.19109186     0.44052923     0.44052923    -0.52190272
     0.19351075     0.41597485     0.41597485    -0.53188447
     0.19592963     0.39096876     0.39096876    -0.54128864
     0.19834851     0.36553811     0.36553811    -0.55010501
     0.20076740     0.33971052     0.33971052    -0.55832402
     0.20318628     0.31351403     0.31351403    -0.56593674
     0.20560517     0.28697709     0.28697709    -0.57293490
     0.20802405     0.26012852     0.26012852    -0.57931090
     0.21044294     0.23299747     0.23299747    -0.58505782
     0.21286182     0.20561341     0.20561341    -0.59016942
     0.21528071     0.17800607     0.17800607    -0.59464014
     0.21769959     0.15020543     0.15020543    -0.59846514
     0.22011847     0.12224168     0.12224168    -0.60164025
     0.22253736     0.09414518     0.09414518    -0.60416204
     0.22495624     0.06594645     0.06594645    -0.60602775
     0.22737513     0.03767611     0.03767611    -0.60723538
     0.22979401     0.00936486     0.00936486    -0.60778360
     0.23221290    -0.01895656    -0.01895656    -0.60767181
     0.23463178    -0.04725740    -0.04725740    -0.60690015
     0.23705066    -0.07550692    -0.07550692    -0.60546945
     0.23946955    -0.10367445    -0.10367445    -0.60338126
     0.24188843    -0.13172939    -0.13172939    -0.60063785
     0.24430732    -0.15964129    -0.15964129    -0.59724220
     0.24672620    -0.18737983    -0.18737983    -0.59319799
     0.24914509    -0.21491489    -0.21491489    -0.58850963
     0.25156397    -0.24221658    -0.24221658    -0.58318219
     0.25398285    -0.26925524    -0.26925524    -0.57722147
     0.25640174    -0.29600151    -0.29600151    -0.57063393
     0.25882062    -0.32242634    -0.32242634    -0.56342674
     0.26123951    -0.34850105    -0.34850105    -0.55560771
     0.26365839    -0.37419732    -0.37419732    -0.54718534
     0.26607728    -0.39948724    -0.39948724    -0.53816877
     0.26849616    -0.42434336    -0.42434336    -0.52856780
     0.27091504    -0.44873867    -0.44873867    -0.51839285
     0.27333393    -0.47264669    -0.47264669    -0.50765497
     0.27575281    -0.49604146    -0.49604146    -0.49636582
     0.27817170    -0.51889757    -0.51889757    -0.48453766
     0.28059058    -0.54119020    -0.54119020    -0.47218334
     0.28300947    -0.56289515    -0.56289515    -0.45931626
     0.28542835    -0.58398884    -0.58398884    -0.44595041
     0.28784723    -0.60444837    -0.60444837    -0.43210029
     0.29026612    -0.62425152    -0.62425152    -0.41778095
     0.29268500    -0.64337679    -0.64337679    -0.40300793
     0.29510389    -0.66180340    -0.66180340    -0.38779729
     0.29752277    -0.67951136    -0.67951136    -0.37216553
     0.29994166    -0.69648142    -0.69648142    -0.35612962
     0.30236054    -0.71269516    -0.71269516    -0.33970700
     0.30477943    -0.72813498    -0.72813498    -0.32291548
     0.30719831    -0.74278411    -0.74278411    -0.30577330
     0.30961719    -0.75662664    -0.75662664    -0.28829908
     0.31203608    -0.76964753    -0.76964753    -0.27051179
     0.31445496    -0.78183266    -0.78183266    -0.25243075
     0.31687385    -0.79316878    -0.79316878    -0.23407559
     0.31929273    -0.80364359    -0.80364359    -0.21546624
     0.32171162    -0.81324571    -0.81324571    -0.19662292
     0.32413050    -0.82196472    -0.82196472    -0.17756608
     0.32654938    -0.82979114    -0.82979114    -0.15831642
     0.32896827    -0.83671649    -0.83671649    -0.13889484
     0.33138715    -0.84273323    -0.84273323    -0.11932243
     0.33380604    -0.84783483    -0.84783483    -0.09962045
     0.33622492    -0.85201576    -0.85201576    -0.07981029
     0.33864381    -0.85527148    -0.85527148    -0.05991346
     0.34106269    -0.85759844    -0.85759844    -0.03995158
     0.34348157    -0.85899413    -0.85899413    -0.01994631
     0.34590046    -0.85945702    -0.85945702     0.00008063
     0.34831934    -0.85898661    -0.85898661     0.02010747
     0.35073823    -0.85758342    -0.85758342     0.04011248
     0.35315711    -0.85524897    -0.85524897     0.06007393
     0.35557600    -0.85198580    -0.85198580     0.07997014
     0.35799488    -0.84779743    -0.84779743     0.09977952
     0.36041376    -0.84268844    -0.84268844     0.11948054
     0.36283265    -0.83666436    -0.83666436     0.13905182
     0.36525153    -0.82973173    -0.82973173     0.15847210
     0.36767042    -0.82189808    -0.82189808     0.17772029
     0.37008930    -0.81317193    -0.81317193     0.19677549
     0.37250819    -0.80356274    -0.80356274     0.21561701
     0.37492707    -0.79308094    -0.79308094     0.23422439
     0.37734595    -0.78173794    -0.78173794     0.25257742
     0.37976484    -0.76954603    -0.76954603     0.27065618
     0.38218372    -0.75651846    -0.75651846     0.28844103
     0.38460261    -0.74266938    -0.74266938     0.30591265
     0.38702149    -0.72801382    -0.72801382     0.32305208
     0.38944038    -0.71256770    -0.71256770     0.33984070
     0.39185926    -0.69634780    -0.69634780     0.35626029
     0.39427815    -0.67937172    -0.67937172     0.37229300
     0.39669703    -0.66165791    -0.66165791     0.38792144
     0.39911591    -0.64322558    -0.64322558     0.40312863
     0.40153480    -0.62409478    -0.62409478     0.41789806
     0.40395368    -0.60428626    -0.60428626     0.43221368
     0.40637257    -0.58382153    -0.58382153     0.44605996
     0.40879145    -0.56272283    -0.56272283     0.45942186
     0.41121034    -0.54101306    -0.54101306     0.47228486
     0.41362922    -0.51871579    -0.51871579     0.48463500
     0.41604810    -0.49585524    -0.49585524     0.49645887
     0.41846699    -0.47245624    -0.47245624     0.50774363
     0.42088587    -0.44854419    -0.44854419     0.51847703
     0.42330476    -0.42414506    -0.42414506     0.52864740
     0.42572364    -0.39928535    -0.39928535     0.53824371
     0.42814253    -0.37399205    -0.37399205     0.54725553
     0.43056141    -0.34829262    -0.34829262     0.55567307
     0.43298029    -0.32221498    -0.32221498     0.56348721
     0.43539918    -0.29578744    -0.29578744     0.57068945
     0.43781806    -0.26903870    -0.26903870     0.57727196
     0.44023695    -0.24199780    -0.24199780     0.58322761
     0.44265583    -0.21469412    -0.21469412     0.58854993
     0.44507472    -0.18715730    -0.18715730     0.59323313
     0.44749360    -0.15941724    -0.15941724     0.59727213
     0.44991248    -0.13150407    -0.13150407     0.60066254
     0.45233137    -0.10344810    -0.10344810     0.60340069
     0.45475025    -0.07527979    -0.07527979     0.60548359
     0.45716914    -0.04702974    -0.04702974     0.60690900
     0.45958802    -0.01872861    -0.01872861     0.60767535
     0.46200691     0.00959286     0.00959286     0.60778182
     0.46442579     0.03790390     0.03790390     0.60722829
     0.46684468     0.06617379     0.06617379     0.60601536
     0.46926356     0.09437182     0.09437182     0.60414435
     0.47168244     0.12246736     0.12246736     0.60161729
     0.47410133     0.15042992     0.15042992     0.59843693
     0.47652021     0.17822913     0.17822913     0.59460672
     0.47893910     0.20583479     0.20583479     0.59013082
     0.48135798     0.23321694     0.23321694     0.58501408
     0.48377687     0.26034583     0.26034583     0.57926207
     0.48619575     0.28719200     0.28719200     0.57288104
     0.48861463     0.31372632     0.31372632     0.56587790
     0.49103352     0.33991995     0.33991995     0.55826027
     0.49345240     0.36574446     0.36574446     0.55003641
     0.49587129     0.39117180     0.39117180     0.54121526
     0.49829017     0.41617436     0.41617436     0.53180640
     0.50070906     0.44072500     0.44072500     0.52182005
     0.50312794     0.46479704     0.46479704     0.51126704
     0.50554682     0.48836436     0.48836436     0.50015884
     0.50796571     0.51140135     0.51140135     0.48850751
     0.51038459     0.53388300     0.53388300     0.47632571
     0.51280348     0.55578491     0.55578491     0.46362665
     0.51522236     0.57708328     0.57708328     0.45042414
     0.51764125     0.59775499     0.59775499     0.43673250
     0.52006013     0.61777758     0.61777758     0.42256662
     0.52247901     0.63712933     0.63712933     0.40794186
     0.52489790     0.65578920     0.65578920     0.39287411
     0.52731678     0.67373695     0.67373695     0.37737973
     0.52973567     0.69095307     0.69095307     0.36147555
     0.53215455     0.70741889     0.70741889     0.34517884
     0.53457344     0.72311650     0.72311650     0.32850730
     0.53699232     0.73802887     0.73802887     0.31147902
     0.53941120     0.75213981     0.75213981     0.29411251
     0.54183009     0.76543399     0.76543399     0.27642662
     0.54424897     0.77789697     0.77789697     0.25844054
     0.54666786     0.78951522     0.78951522     0.24017383
     0.54908674     0.80027613     0.80027613     0.22164631
     0.55150563     0.81016801     0.81016801     0.20287810
     0.55392451     0.81918011     0.81918011     0.18388958
     0.55634340     0.82730265     0.82730265     0.16470137
     0.55876228     0.83452682     0.83452682     0.14533431
     0.56118116     0.84084476     0.84084476     0.12580943
     0.56360005     0.84624962     0.84624962     0.10614793
     0.56601893     0.85073552     0.85073552     0.08637117
     0.56843782     0.85429760     0.85429760     0.06650061
     0.57085670     0.85693198     0.85693198     0.04655784
     0.57327559     0.85863581     0.85863581     0.02656451
     0.57569447     0.85940724     0.85940724     0.00654234
     0.57811335     0.85924542     0.85924542    -0.01348694
     0.58053224     0.85815054     0.85815054    -0.03350158
     0.58295112     0.85612378     0.85612378    -0.05347983
     0.58537001     0.85316734     0.85316734    -0.07340001
     0.58778889     0.84928444     0.84928444    -0.09324049
     0.59020778     0.84447928     0.84447928    -0.11297971
     0.59262666     0.83875710     0.83875710    -0.13259625
     0.59504554     0.83212410     0.83212410    -0.15206879
     0.59746443     0.82458748     0.82458748    -0.17137621
     0.59988331     0.81615543     0.81615543    -0.19049752
     0.60230220     0.80683711     0.80683711    -0.20941197
     0.60472108     0.79664263     0.79664263    -0.22809902
     0.60713997     0.78558306     0.78558306    -0.24653837
     0.60955885     0.77367043     0.77367043    -0.26471001
     0.61197773     0.76091765     0.76091765    -0.28259419
     0.61439662     0.74733858     0.74733858    -0.30017149
     0.61681550     0.73294796     0.73294796    -0.31742284
     0.61923439     0.71776143     0.71776143    -0.33432949
     0.62165327     0.70179547     0.70179547    -0.35087310
     0.62407216     0.68506742     0.68506742    -0.36703568
     0.62649104     0.66759545     0.66759545    -0.38279969
     0.62890992     0.64939852     0.64939852    -0.39814802
     0.63132881     0.63049641     0.63049641    -0.41306399
     0.63374769     0.61090963     0.61090963    -0.42753141
     0.63616658     0.59065945     0.59065945    -0.44153456
     0.63858546     0.56976787     0.56976787    -0.45505825
     0.64100435     0.54825757     0.54825757    -0.46808779
     0.64342323     0.52615191     0.52615191    -0.48060902
     0.64584212     0.50347490     0.50347490    -0.49260835
     0.64826100     0.48025115     0.48025115    -0.50407275
     0.65067988     0.45650590     0.45650590    -0.51498978
     0.65309877     0.43226491     0.43226491    -0.52534756
     0.65551765     0.40755453     0.40755453    -0.53513487
     0.65793654     0.38240157     0.38240157    -0.54434106
     0.66035542     0.35683336     0.35683336    -0.55295615
     0.66277431     0.33087766     0.33087766    -0.56097078
     0.66519319     0.30456266     0.30456266    -0.56837624
     0.66761207     0.27791693     0.27791693    -0.57516449
     0.67003096     0.25096940     0.25096940    -0.58132816
     0.67244984     0.22374934     0.22374934    -0.58686056
     0.67486873     0.19628631     0.19628631    -0.59175568
     0.67728761     0.16861013     0.16861013    -0.59600820
     0.67970650     0.14075085     0.14075085    -0.59961352
     0.68212538     0.11273873     0.11273873    -0.60256770
     0.68454426     0.08460419     0.08460419    -0.60486754
     0.68696315     0.05637777     0.05637777    -0.60651056
     0.68938203     0.02809013     0.02809013    -0.60749495
     0.69180092    -0.00022801    -0.00022801    -0.60781966
     0.69421980    -0.02854590    -0.02854590    -0.60748432
     0.69663869    -0.05683280    -0.05683280    -0.60648932
     0.69905757    -0.08505798    -0.08505798    -0.60483571
     0.70147645    -0.11319080    -0.11319080    -0.60252531
     0.70389534    -0.14120069    -0.14120069    -0.59956062
     0.70631422    -0.16905726    -0.16905726    -0.59594485
     0.70873311    -0.19673025    -0.19673025    -0.59168194
     0.71115199    -0.22418960    -0.22418960    -0.58677652
     0.71357088    -0.25140551    -0.25140551    -0.58123390
     0.71598976    -0.27834841    -0.27834841    -0.57506012
     0.71840864    -0.30498904    -0.30498904    -0.56826187
     0.72082753    -0.33129849    -0.33129849    -0.56084654
     0.72324641    -0.35724817    -0.35724817    -0.55282218
     0.72566530    -0.38280991    -0.38280991    -0.54419749
     0.72808418    -0.40795596    -0.40795596    -0.53498186
     0.73050307    -0.43265899    -0.43265899    -0.52518529
     0.73292195    -0.45689220    -0.45689220    -0.51481840
     0.73534084    -0.48062927    -0.48062927    -0.50389247
     0.73775972    -0.50384441    -0.50384441    -0.49241936
     0.74017860    -0.52651242    -0.52651242    -0.48041152
     0.74259749    -0.54860868    -0.54860868    -0.46788199
     0.74501637    -0.57010920    -0.57010920    -0.45484439
     0.74743526    -0.59099063    -0.59099063    -0.44131286
     0.74985414    -0.61123030    -0.61123030    -0.42730211
     0.75227303    -0.63080622    -0.63080622    -0.41282734
     0.75469191    -0.64969714    -0.64969714    -0.39790428
     0.75711079    -0.66788255    -0.66788255    -0.38254913
     0.75952968    -0.68534269    -0.68534269    -0.36677856
     0.76194856    -0.70205861    -0.70205861    -0.35060970
     0.76436745    -0.71801216    -0.71801216    -0.33406012
     0.76678633    -0.73318601    -0.73318601    -0.31714777
     0.76920522    -0.74756368    -0.74756368    -0.29989102
     0.77162410    -0.76112956    -0.76112956    -0.28230862
     0.77404298    -0.77386892    -0.77386892    -0.26441966
     0.77646187    -0.78576792    -0.78576792    -0.24624356
     0.77888075    -0.79681365    -0.79681365    -0.22780006
     0.78129964    -0.80699410    -0.80699410    -0.20910919
     0.78371852    -0.81629824    -0.81629824    -0.19019124
     0.78613741    -0.82471594    -0.82471594    -0.17106677
