#           time (fs)    |     mu_x (e.angstrom)   |     mu_y (e.angstrom)   |     mu_z (e.angstrom)   |
        0.000000000000000       -0.000000000000000       -0.000000000000000        0.000000000000000
        0.002418884326505       -0.000000000717850        0.000000000043344        0.000005920497839
        0.004837768653010       -0.000000060035460        0.000000003618776        0.000247590279904
        0.007256652979515       -0.000000177931190        0.000000010725404        0.000489188589140
        0.009675537306020       -0.000000466774941        0.000000028135903        0.000962462155710
        0.012094421632525       -0.000000869999284        0.000000052441471        0.001435076557062
        0.014513305959030       -0.000001550329169        0.000000093449678        0.002131028203473
        0.016932190285535       -0.000002397975671        0.000000144544205        0.002825227580423
        0.019351074612040       -0.000003618567273        0.000000218118658        0.003730299526123
        0.021769958938545       -0.000005055076197        0.000000304709968        0.004632042344123
        0.024188843265050       -0.000006946178969        0.000000418704223        0.005728272918163
        0.026607727591555       -0.000009096084706        0.000000548302779        0.006819145609098
        0.029026611918060       -0.000011764522069        0.000000709161867        0.008084473466544
        0.031445496244565       -0.000014727672319        0.000000887794756        0.009342004276637
        0.033864380571070       -0.000018252504264        0.000001100296203        0.010750643616567
        0.036283264897575       -0.000022099869410        0.000001332257262        0.012148686717042
        0.038702149224080       -0.000026528726434        0.000001599292981        0.013671567291703
        0.041121033550585       -0.000031298905135        0.000001886935131        0.015180750787189
        0.043539917877090       -0.000036645088131        0.000002209339468        0.016786015422147
        0.045958802203595       -0.000042341600446        0.000002552914268        0.018374245841234
        0.048377686530100       -0.000048582024903        0.000002929342380        0.020027797244754
        0.050796570856605       -0.000055171467571        0.000003326890715        0.021660812176273
        0.053215455183110       -0.000062245512418        0.000003753750310        0.023326900016494
        0.055634339509615       -0.000069656632525        0.000004201046978        0.024968859776973
        0.058053223836120       -0.000077465934569        0.000004672485277        0.026610698357887
        0.060472108162625       -0.000085589658170        0.000005163039107        0.028224806949822
        0.062890992489130       -0.000093998872655        0.000005670985767        0.029805213329151
        0.065309876815635       -0.000102689304282        0.000006196095807        0.031354358483130
        0.067728761142140       -0.000111527831143        0.000006730361464        0.032836400551187
        0.070147645468645       -0.000120604219052        0.000007279228703        0.034283802341628
        0.072566529795150       -0.000129668873235        0.000007827657773        0.035631446222315
        0.074985414121655       -0.000138918514003        0.000008387550886        0.036941303608617
        0.077404298448160       -0.000147977097329        0.000008936226304        0.038120049751816
        0.079823182774665       -0.000157159132572        0.000009492698947        0.039258174424019
        0.082242067101170       -0.000165954844373        0.000010026195613        0.040235671930763
        0.084660951427675       -0.000174804882225        0.000010563351924        0.041170099029738
        0.087079835754180       -0.000183061486817        0.000011065034790        0.041916728084532
        0.089498720080685       -0.000191296961907        0.000011565838857        0.042618293718002
        0.091917604407190       -0.000198724613303        0.000012018200759        0.043107706491456
        0.094336488733695       -0.000206050781598        0.000012464825036        0.043550582474178
        0.096755373060200       -0.000212352390086        0.000012849858590        0.043760193497442
        0.099174257386705       -0.000218468839568        0.000013224065378        0.043922370400381
        0.101593141713210       -0.000223346851181        0.000013523662495        0.043833788192901
        0.104012026039715       -0.000227954396254        0.000013807211855        0.043697498584320
        0.106430910366220       -0.000231117845124        0.000014003583681        0.043296891228428
        0.108849794692725       -0.000233925662112        0.000014178660358        0.042848965919672
        0.111268679019230       -0.000235097347431        0.000014254769757        0.042127354308011
        0.113687563345735       -0.000235830200868        0.000014304420978        0.041359505466492
        0.116106447672240       -0.000234753834908        0.000014244419009        0.040312979087480
        0.118525331998745       -0.000233159239731        0.000014152994373        0.039222005234781
        0.120944216325250       -0.000229606411225        0.000013942651685        0.037851856591360
        0.123363100651755       -0.000225461574457        0.000013696235806        0.036439765748986
        0.125781984978260       -0.000219238372725        0.000013323359445        0.034752540808641
        0.128200869304765       -0.000212356760054        0.000012910187629        0.033026589368955
        0.130619753631270       -0.000203309909507        0.000012365013492        0.031034052798156
        0.133038637957775       -0.000193547287095        0.000011775860514        0.029006699062633
        0.135457522284280       -0.000181569649205        0.000011051411661        0.026725714384430
        0.137876406610785       -0.000168829459173        0.000010279943754        0.024414487102886
        0.140295290937290       -0.000153864769401        0.000009372345008        0.021866813308999
        0.142714175263795       -0.000138102708524        0.000008415425451        0.019294096948182
        0.145133059590300       -0.000120149428965        0.000007324165215        0.016506104472283
        0.147551943916805       -0.000101377113932        0.000006182104544        0.013698844315550
        0.149970828243310       -0.000080491298246        0.000004910235561        0.010701154608180
        0.152389712569815       -0.000058778917214        0.000003586978289        0.007690486115535
        0.154808596896320       -0.000035076002454        0.000002141250189        0.004517540329242
        0.157227481222825       -0.000010553871156        0.000000644491169        0.001338348444912
        0.159646365549330        0.000015790668908       -0.000000964590985       -0.001972088082005
        0.162065249875835        0.000042931707862       -0.000002623365967       -0.005281672821515
        0.164484134202340        0.000071682891841       -0.000004381561241       -0.008689062523905
        0.166903018528845        0.000101192266004       -0.000006187114303       -0.012088223175276
        0.169321902855350        0.000132057337687       -0.000008076545873       -0.015549855961781
        0.171740787181855        0.000163626754776       -0.000010010007070       -0.018995694825781
        0.174159671508360        0.000196258117573       -0.000012009342898       -0.022467326022417
        0.176578555834865        0.000229524781546       -0.000014048411194       -0.025915507156519
        0.178997440161370        0.000263524108885       -0.000016133123663       -0.029352023554003
        0.181416324487875        0.000298075111415       -0.000018252346518       -0.032757441926358
        0.183835208814380        0.000332998583885       -0.000020395047237       -0.036113545319062
        0.186254093140885        0.000368376417050       -0.000022566174486       -0.039431011935326
        0.188672977467390        0.000403741014133       -0.000024737018547       -0.042661909241322
        0.191091861793895        0.000439450127163       -0.000026929424347       -0.045846841302569
        0.193510746120400        0.000474740879421       -0.000029096576560       -0.048908930234071
        0.195929630446905        0.000510255180485       -0.000031277741495       -0.051918035289053
        0.198348514773410        0.000544933267416       -0.000033407895588       -0.054769574601609
        0.200767399099915        0.000579704450983       -0.000035543939585       -0.057561517740487
        0.203186283426420        0.000613216010937       -0.000037602880119       -0.060163271325550
        0.205605167752925        0.000646682572636       -0.000039659135682       -0.062699314722608
        0.208024052079430        0.000678468074428       -0.000041612331524       -0.065015159217097
        0.210442936405935        0.000710064858950       -0.000043553945982       -0.067259763762094
        0.212861820732440        0.000739568870596       -0.000045367163563       -0.069257249923023
        0.215280705058945        0.000768736984370       -0.000047159718528       -0.071178629277389
        0.217699589385450        0.000795418162924       -0.000048799642895       -0.072829488100281
        0.220118473711955        0.000821615072362       -0.000050409778970       -0.074400106265625
        0.222537358038460        0.000844956190531       -0.000051844630635       -0.075680691700454
        0.224956242364965        0.000867665818908       -0.000053240665520       -0.076877696080986
        0.227375126691470        0.000887183639120       -0.000054440801480       -0.077769357205060
        0.229794011017975        0.000905926270808       -0.000055593329977       -0.078574940168456
        0.232212895344480        0.000921181075971       -0.000056531817767       -0.079064316796225
        0.234631779670985        0.000935522876024       -0.000057414282783       -0.079465999873221
        0.237050663997490        0.000946127468414       -0.000058067437181       -0.079545236800892
        0.239469548323995        0.000955689428464       -0.000058656661506       -0.079536072894693
        0.241888432650500        0.000961317414120       -0.000059004534295       -0.079202949273646
        0.244307316977005        0.000965783542263       -0.000059281203778       -0.078781639556627
        0.246726201303510        0.000966176727865       -0.000059308017923       -0.078039611243461
        0.249145085630015        0.000965301310673       -0.000059257107533       -0.077210534779986
        0.251563969956520        0.000960276053121       -0.000058951628035       -0.076068688900976
        0.253982854283025        0.000953889831897       -0.000058562763195       -0.074841844429684
        0.256401738609530        0.000943342197407       -0.000057918597867       -0.073314766801372
        0.258820622936035        0.000931357318232       -0.000057186344386       -0.071705627515631
        0.261239507262540        0.000915266927564       -0.000056202168746       -0.069813184958544
        0.263658391589045        0.000897680545171       -0.000055126245567       -0.067842468517381
        0.266077275915550        0.000876113004134       -0.000053805946992       -0.065609509463999
        0.268496160242055        0.000853009442870       -0.000052391356938       -0.063302866825160
        0.270915044568560        0.000826117282240       -0.000050744094216       -0.060758844934334
        0.273333928895065        0.000797668682921       -0.000049001168853       -0.058146472904361
        0.275752813221570        0.000765690758781       -0.000047041344269       -0.055324999631123
        0.278171697548075        0.000732156167604       -0.000044985700055       -0.052441183253428
        0.280590581874580        0.000695415501373       -0.000042732842221       -0.049379516465792
        0.283009466201085        0.000657138385702       -0.000040385246200       -0.046262108496956
        0.285428350527590        0.000616038452304       -0.000037863803017       -0.043000585261324
        0.287847234854095        0.000573442657546       -0.000035249947545       -0.039690431000089
        0.290266119180600        0.000528462159549       -0.000032488989969       -0.036271853557761
        0.292685003507105        0.000482046350913       -0.000029639177297       -0.032812170173985
        0.295103887833610        0.000433732545626       -0.000026672015964       -0.029281154888301
        0.297522772160115        0.000384063207696       -0.000023620755016       -0.025716875136128
        0.299941656486620        0.000333023882471       -0.000020484473357       -0.022119174790563
        0.302360540813125        0.000280726977718       -0.000017269992614       -0.018496265569055
        0.304779425139630        0.000227621195566       -0.000014004901701       -0.014878075830936
        0.307198309466135        0.000173372609594       -0.000010668583880       -0.011242842466416
        0.309617193792640        0.000118900372128       -0.000007317606000       -0.007650103591238
        0.312036078119145        0.000063415298047       -0.000003903351973       -0.004048490951313
        0.314454962445650        0.000008306295272       -0.000000511341667       -0.000526195883718
        0.316873846772155       -0.000047672268298        0.000002935127127        0.002996902511496
        0.319292731098660       -0.000102670632199        0.000006322114079        0.006405382584376
        0.321711615425165       -0.000158384075829        0.000009754003691        0.009806796414841
        0.324130499751670       -0.000212519175220        0.000013089481241        0.013060358283368
        0.326549384078175       -0.000267205956616        0.000016459711117        0.016299282514278
        0.328968268404680       -0.000319732737316        0.000019697560308        0.019359698624128
        0.331387152731185       -0.000372641320853        0.000022959572985        0.022398295577309
        0.333806037057690       -0.000422835166000        0.000026054850958        0.025230773479367
        0.336224921384195       -0.000473236993933        0.000029163430356        0.028034725299551
        0.338643805710700       -0.000520406430668        0.000032073175357        0.030608409976987
        0.341062690037205       -0.000567608691926        0.000034985257701        0.033147412716312
        0.343481574363710       -0.000611107706025        0.000037669273965        0.035435823833179
        0.345900458690215       -0.000654465668536        0.000040344734969        0.037684015338303
        0.348319343016720       -0.000693705397656        0.000042766341272        0.039665412525926
        0.350738227343225       -0.000732634074379        0.000045168743284        0.041601727403213
        0.353157111669730       -0.000767093658262        0.000047295469306        0.043259397886739
        0.355575995996235       -0.000801078585622        0.000049392752574        0.044867844023120
        0.357994880322740       -0.000830314963425        0.000051196968045        0.046190308170295
        0.360413764649245       -0.000858921883373        0.000052962071224        0.047460160579465
        0.362832648975750       -0.000882578344022        0.000054421534014        0.048441292304310
        0.365251533302255       -0.000905461597458        0.000055832930354        0.049367201427039
        0.367670417628760       -0.000923274908364        0.000056931241286        0.050006261778844
        0.370089301955265       -0.000940184367773        0.000057973378631        0.050588274768431
        0.372508186281770       -0.000951990330064        0.000058700332696        0.050889858456878
        0.374927070608275       -0.000962776722713        0.000059363967417        0.051133353401655
        0.377345954934780       -0.000968514026988        0.000059715793243        0.051107249427445
        0.379764839261285       -0.000973132526501        0.000059998210431        0.051022783877583
        0.382183723587790       -0.000972844811547        0.000059977692159        0.050683752830778
        0.384602607914295       -0.000971356804680        0.000059882806760        0.050286829382836
        0.387021492240800       -0.000965192852240        0.000059499284935        0.049654301315504
        0.389440376567305       -0.000957765818806        0.000059037620907        0.048965054343068
        0.391859260893810       -0.000945977849718        0.000058306871384        0.048062752397655
        0.394278145220315       -0.000932883326302        0.000057495418392        0.047105561279263
        0.396697029546820       -0.000915823396807        0.000056439410666        0.045961057440118
        0.399115913873325       -0.000897433028719        0.000055301360145        0.044764092807936
        0.401534798199830       -0.000875547559700        0.000053947898782        0.043408303223436
        0.403953682526335       -0.000852327279899        0.000052512263447        0.042003013820968
        0.406372566852840       -0.000826149785941        0.000050894518400        0.040469642102774
        0.408791451179345       -0.000798652193953        0.000049195641339        0.038890190782726
        0.411210335505850       -0.000768794312607        0.000047351574924        0.037215128513771
        0.413629219832355       -0.000737649360115        0.000045428536326        0.035497786715201
        0.416048104158860       -0.000704790314240        0.000043400236344        0.033718481078192
        0.418466988485365       -0.000670694436472        0.000041296167624        0.031900991784400
        0.420885872811870       -0.000635569093252        0.000039129097722        0.030055790748480
        0.423304757138375       -0.000599272955993        0.000036890414338        0.028176710434426
        0.425723641464880       -0.000562658674773        0.000034632594049        0.026304196301873
        0.428142525791385       -0.000524953735113        0.000032308159655        0.024402226724502
        0.430561410117890       -0.000487656221869        0.000030009287755        0.022540549035681
        0.432980294444395       -0.000449360326199        0.000027649523516        0.020653869896337
        0.435399178770900       -0.000412198734812        0.000025360059334        0.018840088715473
        0.437818063097405       -0.000374140999467        0.000023016013224        0.017005702225973
        0.440236947423910       -0.000337932538442        0.000020786231375        0.015275152679887
        0.442655831750415       -0.000300937776291        0.000018508623101        0.013528250890255
        0.445074716076920       -0.000266482093706        0.000016387657750        0.011913939506551
        0.447493600403425       -0.000231355063455        0.000014225915599        0.010287304902312
        0.449912484729930       -0.000199418692363        0.000012260810812        0.008819347794339
        0.452331369056435       -0.000166928455945        0.000010262117173        0.007342797146722
        0.454750253382940       -0.000138229606790        0.000008496900164        0.006047909424365
        0.457169137709445       -0.000109094283690        0.000006705262660        0.004747790182639
        0.459588022035950       -0.000084288269412        0.000005180056742        0.003648835138253
        0.462006906362455       -0.000059160474856        0.000003635421956        0.002547582797967
        0.464425790688960       -0.000038826048034        0.000002385615745        0.001663188436328
        0.466844675015465       -0.000018279294644        0.000001123042170        0.000778952312113
        0.469263559341970       -0.000002906164282        0.000000178531058        0.000123201676571
        0.471682443668475        0.000012577506005       -0.000000772562663       -0.000530454631264
