#           time (fs)    |     mu_x (e.angstrom)   |     mu_y (e.angstrom)   |     mu_z (e.angstrom)   |
        0.000000000000000       -0.000000000000000       -0.000000000000000        0.000000000000000
        0.002418884326505        0.000000002169718        0.000000001884607       -0.000022764659820
        0.004837768653010        0.000000008681311        0.000000007541796       -0.000045549832300
        0.007256652979515        0.000000019431681        0.000000016880129       -0.000067967992457
        0.009675537306020        0.000000034464144        0.000000029940355       -0.000090417333212
        0.012094421632525        0.000000053435266        0.000000046419755       -0.000112148867648
        0.014513305959030        0.000000076573901        0.000000066522752       -0.000133932642194
        0.016932190285535        0.000000103169475        0.000000089625187       -0.000154670174917
        0.019351074612040        0.000000133774909        0.000000116215504       -0.000175490786205
        0.021769958938545        0.000000167197135        0.000000145247889       -0.000194964026691
        0.024188843265050        0.000000204440275        0.000000177605254       -0.000214560029881
        0.026607727591555        0.000000243728706        0.000000211733204       -0.000232539185538
        0.029026611918060        0.000000286629182        0.000000249005925       -0.000250688399935
        0.031445496244565        0.000000330702247        0.000000287289828       -0.000266986621562
        0.033864380571070        0.000000378169097        0.000000328530130       -0.000283508302261
        0.036283264897575        0.000000425866966        0.000000369962383       -0.000297983137626
        0.038702149224080        0.000000476740253        0.000000414162573       -0.000312739188191
        0.041121033550585        0.000000526867719        0.000000457704842       -0.000325293038362
        0.043539917877090        0.000000579959824        0.000000503833174       -0.000338188264665
        0.045958802203595        0.000000631327900        0.000000548452528       -0.000348767857040
        0.048377686530100        0.000000685463219        0.000000595487697       -0.000359749281037
        0.050796570856605        0.000000736928211        0.000000640190550       -0.000368344191983
        0.053215455183110        0.000000790980105        0.000000687153789       -0.000377399462312
        0.055634339509615        0.000000841479000        0.000000731016652       -0.000384039740395
        0.058053223836120        0.000000894402896        0.000000777000492       -0.000391194693880
        0.060472108162625        0.000000942984049        0.000000819196628       -0.000395947651742
        0.062890992489130        0.000000993845748        0.000000863389489       -0.000401263095958
        0.065309876815635        0.000001039693970        0.000000903210709       -0.000404229354452
        0.067728761142140        0.000001087692354        0.000000944916626       -0.000407797156121
        0.070147645468645        0.000001130147682        0.000000981789596       -0.000409106038289
        0.072566529795150        0.000001174631168        0.000001020442517       -0.000411044615140
        0.074985414121655        0.000001213200779        0.000001053939107       -0.000410848999585
        0.077404298448160        0.000001253677076        0.000001089111368       -0.000411298324298
        0.079823182774665        0.000001288040009        0.000001118952756       -0.000409769077392
        0.082242067101170        0.000001324178908        0.000001150357500       -0.000408885311060
        0.084660951427675        0.000001354183460        0.000001176411906       -0.000406205424981
        0.087079835754180        0.000001385812592        0.000001203899405       -0.000404155304076
        0.089498720080685        0.000001411466464        0.000001226173533       -0.000400513872774
        0.091917604407190        0.000001438560187        0.000001249721523       -0.000397468977775
        0.094336488733695        0.000001460013678        0.000001268345957       -0.000393055145599
        0.096755373060200        0.000001482675417        0.000001288044302       -0.000389186181114
        0.099174257386705        0.000001500198152        0.000001303253290       -0.000384183198827
        0.101593141713210        0.000001518636752        0.000001319283437       -0.000379654414282
        0.104012026039715        0.000001532588639        0.000001331389658       -0.000374233934676
        0.106430910366220        0.000001547089452        0.000001343999519       -0.000369197811362
        0.108849794692725        0.000001557886733        0.000001353364589       -0.000363514551649
        0.111268679019230        0.000001568778327        0.000001362839614       -0.000358106876256
        0.113687563345735        0.000001576855752        0.000001369841227       -0.000352293766892
        0.116106447672240        0.000001584473277        0.000001376472587       -0.000346629203699
        0.118525331998745        0.000001590243564        0.000001381469295       -0.000340793133593
        0.120944216325250        0.000001594889953        0.000001385520169       -0.000334961397325
        0.123363100651755        0.000001598701804        0.000001388814909       -0.000329179653462
        0.125781984978260        0.000001600608041        0.000001390485971       -0.000323242372749
        0.128200869304765        0.000001602704068        0.000001392289519       -0.000317559858490
        0.130619753631270        0.000001601989860        0.000001391684773       -0.000311548205960
        0.133038637957775        0.000001602465825        0.000001392080327       -0.000305975506870
        0.135457522284280        0.000001599102026        0.000001389174464       -0.000299888656558
        0.137876406610785        0.000001597868781        0.000001388084588       -0.000294401005758
        0.140295290937290        0.000001591642921        0.000001382693040       -0.000288205461884
        0.142714175263795        0.000001588392468        0.000001379850179       -0.000282742639071
        0.145133059590300        0.000001578878700        0.000001371603016       -0.000276372462692
        0.147551943916805        0.000001573055679        0.000001366524726       -0.000270839642296
        0.149970828243310        0.000001559590407        0.000001354845479       -0.000264197584195
        0.152389712569815        0.000001550370258        0.000001346815457       -0.000258467129075
        0.154808596896320        0.000001532034581        0.000001330905872       -0.000251426658751
        0.157227481222825        0.000001518309487        0.000001318961750       -0.000245340836690
        0.159646365549330        0.000001493919484        0.000001297793347       -0.000237749038947
        0.162065249875835        0.000001474293069        0.000001280722081       -0.000231123620300
        0.164484134202340        0.000001442398777        0.000001253035266       -0.000222804912851
        0.166903018528845        0.000001415190311        0.000001229376794       -0.000215433589436
        0.169321902855350        0.000001374084061        0.000001193688105       -0.000206194197652
        0.171740787181855        0.000001337342754        0.000001161747760       -0.000197853745628
        0.174159671508360        0.000001285077325        0.000001116365634       -0.000187486854213
        0.176578555834865        0.000001236607031        0.000001074235610       -0.000177942947614
        0.178997440161370        0.000001171023845        0.000001017284880       -0.000166234434045
        0.181416324487875        0.000001108418275        0.000000962874820       -0.000155248001125
        0.183835208814380        0.000001027185624        0.000000892329918       -0.000141982642314
        0.186254093140885        0.000000947873892        0.000000823406480       -0.000129316644155
        0.188672977467390        0.000000848534916        0.000000737133124       -0.000114284676261
        0.191091861793895        0.000000749836987        0.000000651368151       -0.000099711176507
        0.193510746120400        0.000000629866896        0.000000547173046       -0.000082715078443
        0.195929630446905        0.000000509058247        0.000000442199736       -0.000066022464667
        0.198348514773410        0.000000365929997        0.000000317887633       -0.000046883828658
        0.200767399099915        0.000000220314521        0.000000191363872       -0.000027884039997
        0.203186283426420        0.000000051571926        0.000000044801080       -0.000006450387834
        0.205605167752925       -0.000000121438105       -0.000000105521093        0.000015013999766
        0.208024052079430       -0.000000318101085       -0.000000276337828        0.000038862598323
        0.210442936405935       -0.000000520899447       -0.000000452537882        0.000062911578556
        0.212861820732440       -0.000000747554709       -0.000000649408408        0.000089256228388
        0.215280705058945       -0.000000982251672       -0.000000853319522        0.000115966009959
        0.217699589385450       -0.000001240649940       -0.000001077764675        0.000144843194329
        0.220118473711955       -0.000001508980565       -0.000001310894074        0.000174240427707
        0.222537358038460       -0.000001800463147       -0.000001564079018        0.000205636827645
        0.224956242364965       -0.000002103695403       -0.000001827528150        0.000237693548231
        0.227375126691470       -0.000002429106698       -0.000002110186371        0.000271541603912
        0.229794011017975       -0.000002767951490       -0.000002404572747        0.000306171016718
        0.232212895344480       -0.000003127554299       -0.000002716932478        0.000342345346625
        0.234631779670985       -0.000003502079565       -0.000003042315043        0.000379398565147
        0.237050663997490       -0.000003895475321       -0.000003384029967        0.000417713345963
        0.239469548323995       -0.000004305026400       -0.000003739839922        0.000456977183383
        0.241888432650500       -0.000004731082441       -0.000004109925990        0.000497184578664
        0.244307316977005       -0.000005174210881       -0.000004494904948        0.000538380472885
        0.246726201303510       -0.000005630996855       -0.000004891685131        0.000580170181807
        0.249145085630015       -0.000006105399813       -0.000005303832466        0.000622954317527
        0.251563969956520       -0.000006590135244       -0.000005724891214        0.000665954296688
        0.253982854283025       -0.000007092607466       -0.000006161422354        0.000709918967925
        0.256401738609530       -0.000007601622383       -0.000006603571384        0.000753697359569
        0.258820622936035       -0.000008128022674       -0.000007060888684        0.000798373595155
        0.261239507262540       -0.000008656733036       -0.000007520145646        0.000842441874624
        0.263658391589045       -0.000009201966877       -0.000007993823294        0.000887303327492
        0.266077275915550       -0.000009744866341       -0.000008465404622        0.000931120661499
        0.268496160242055       -0.000010302886119       -0.000008950188845        0.000975588740463
        0.270915044568560       -0.000010853555434       -0.000009428517932        0.001018567526316
        0.273333928895065       -0.000011417379455       -0.000009918343526        0.001062017726862
        0.275752813221570       -0.000011968514510       -0.000010397075096        0.001103530261362
        0.278171697548075       -0.000012530265664       -0.000010885099030        0.001145299630083
        0.280590581874580       -0.000013073724880       -0.000011357160328        0.001184685835871
        0.283009466201085       -0.000013624689504       -0.000011835812893        0.001224081481989
        0.285428350527590       -0.000014151560947       -0.000012293462000        0.001260657598962
        0.287847234854095       -0.000014682268051       -0.000012754515649        0.001296966146226
        0.290266119180600       -0.000015182956272       -0.000013189416937        0.001330034276620
        0.292685003507105       -0.000015683276928       -0.000013624072645        0.001362532130083
        0.295103887833610       -0.000016147609157       -0.000014027389050        0.001391390508329
        0.297522772160115       -0.000016606875460       -0.000014426379667        0.001419354793482
        0.299941656486620       -0.000017024226419       -0.000014788881123        0.001443308636164
        0.302360540813125       -0.000017431369022       -0.000015142590873        0.001466028652891
        0.304779425139630       -0.000017790803209       -0.000015454777929        0.001484401430496
        0.307198309466135       -0.000018134506064       -0.000015753376838        0.001501190451569
        0.309617193792640       -0.000018424936004       -0.000016005618140        0.001513335412399
        0.312036078119145       -0.000018693806526       -0.000016239209863        0.001523542646086
        0.314454962445650       -0.000018904165104       -0.000016421891862        0.001528854413908
        0.316873846772155       -0.000019086917636       -0.000016580673061        0.001531876942813
        0.319292731098660       -0.000019206342287       -0.000016684360012        0.001529803003772
        0.321711615425165       -0.000019291992388       -0.000016758789126        0.001525097507513
        0.324130499751670       -0.000019310018582       -0.000016774391160        0.001515149398672
        0.326549384078175       -0.000019288085346       -0.000016755364144        0.001502243466467
        0.328968268404680       -0.000019194846548       -0.000016674310952        0.001484007478112
        0.331387152731185       -0.000019055559899       -0.000016553341336        0.001462510318928
        0.333806037057690       -0.000018841990885       -0.000016367758774        0.001435657525545
        0.336224921384195       -0.000018576500551       -0.000016137159166        0.001405269888128
        0.338643805710700       -0.000018234540822       -0.000015840045924        0.001369565328788
        0.341062690037205       -0.000017835123511       -0.000015493107964        0.001330088451627
        0.343481574363710       -0.000017357917322       -0.000015078509304        0.001285399289237
        0.345900458690215       -0.000016818178519       -0.000014609678923        0.001236742711251
        0.348319343016720       -0.000016200267995       -0.000014072854408        0.001183045211762
        0.350738227343225       -0.000015515334688       -0.000013477899221        0.001125233288078
        0.353157111669730       -0.000014752842434       -0.000012815481315        0.001062618475056
        0.355575995996235       -0.000013919543109       -0.000012091646957        0.000995795458530
        0.357994880322740       -0.000013010340734       -0.000011301787396        0.000924473315375
        0.360413764649245       -0.000012027369019       -0.000010447939647        0.000848906883240
        0.362832648975750       -0.000010971228092       -0.000009530440554        0.000769208994481
        0.365251533302255       -0.000009839286542       -0.000008547190233        0.000685292120466
        0.367670417628760       -0.000008638008630       -0.000007503617068        0.000597672664767
        0.370089301955265       -0.000007359929342       -0.000006393424804        0.000505923759876
        0.372508186281770       -0.000006017451985       -0.000005227198419        0.000410958790317
        0.374927070608275       -0.000004598290978       -0.000003994456628        0.000312020059900
        0.377345954934780       -0.000003120766727       -0.000002710921933        0.000210405031412
        0.379764839261285       -0.000001567869308       -0.000001362011620        0.000105039021820
        0.382183723587790        0.000000036284725        0.000000031519363       -0.000002415448966
        0.384602607914295        0.000001713249992        0.000001488199087       -0.000113331114352
        0.387021492240800        0.000003433334251        0.000002982431672       -0.000225705245561
        0.389440376567305        0.000005222374972        0.000004536463070       -0.000341184914199
        0.391859260893810        0.000007045422997        0.000006120133381       -0.000457457473877
        0.394278145220315        0.000008932257292        0.000007759109902       -0.000576416242101
        0.396697029546820        0.000010843085953        0.000009419028492       -0.000695473918322
        0.399115913873325        0.000012811212740        0.000011128615804       -0.000816738059248
        0.401534798199830        0.000014792507957        0.000012849742099       -0.000937386395733
        0.403953682526335        0.000016823313667        0.000014613770774       -0.001059705330868
        0.406372566852840        0.000018855751858        0.000016379318561       -0.001180681113956
        0.408791451179345        0.000020928653514        0.000018179908362       -0.001302740797738
        0.411210335505850        0.000022991058458        0.000019971482047       -0.001422725757151
        0.413629219832355        0.000025083682479        0.000021789197249       -0.001543163320569
        0.416048104158860        0.000027153216729        0.000023586958152       -0.001660798984624
        0.418466988485365        0.000029241612232        0.000025400992857       -0.001778218462953
        0.420885872811870        0.000031294001637        0.000027183854267       -0.001892121989197
        0.423304757138375        0.000033352886438        0.000028972246131       -0.002005110940011
        0.425723641464880        0.000035362675763        0.000030718095403       -0.002113891724855
        0.428142525791385        0.000037365712716        0.000032457965728       -0.002221038526226
        0.430561410117890        0.000039306549817        0.000034143911189       -0.002323315382420
        0.432980294444395        0.000041226650565        0.000035811728852       -0.002423226987793
        0.435399178770900        0.000043071596040        0.000037414368856       -0.002517645666690
        0.437818063097405        0.000044881248766        0.000038986235081       -0.002608965582590
        0.440236947423910        0.000046603107518        0.000040481946098       -0.002694216409390
        0.442655831750415        0.000048274724776        0.000041933896687       -0.002775642655033
        0.445074716076920        0.000049846395483        0.000043299136954       -0.002850478039617
        0.447493600403425        0.000051352677791        0.000044607458199       -0.002920780843845
        0.449912484729930        0.000052747515859        0.000045819083082       -0.002984032427635
        0.452331369056435        0.000054061826336        0.000046960637273       -0.003042071418387
        0.454750253382940        0.000055254015598        0.000047996222205       -0.003092666618893
        0.457169137709445        0.000056350760637        0.000048948778363       -0.003137407263771
        0.459588022035950        0.000057315688757        0.000049786944997       -0.003174384983133
        0.462006906362455        0.000058170699477        0.000050529510261       -0.003204914046431
        0.464425790688960        0.000058885331830        0.000051150251271       -0.003227439318318
        0.466844675015465        0.000059476240873        0.000051663398224       -0.003242979110146
        0.469263559341970        0.000059919487523        0.000052048396080       -0.003250356470734
        0.471682443668475        0.000060226095695        0.000052314581219       -0.003250277677414
