#           time (fs)    |     mu_x (e.angstrom)   |     mu_y (e.angstrom)   |     mu_z (e.angstrom)   |
        0.000000000000000       -0.000000000000000       -0.000000000000000        0.000000000000000
        0.002418884326505       -0.000000004013082        0.000000003257108        0.000037971401143
        0.004837768653010       -0.000000045729679        0.000000037109518        0.000216333623280
        0.007256652979515       -0.000000124953355        0.000000101400841        0.000394081145617
        0.009675537306020       -0.000000302914824        0.000000245814613        0.000716503154905
        0.012094421632525       -0.000000548299934        0.000000444946540        0.001037546298798
        0.014513305959030       -0.000000954425545        0.000000774513947        0.001505047121694
        0.016932190285535       -0.000001457676516        0.000001182904443        0.001970260884120
        0.019351074612040       -0.000002182464242        0.000001771064462        0.002581179355152
        0.021769958938545       -0.000003033213935        0.000002461450563        0.003188766552311
        0.024188843265050       -0.000004162923066        0.000003378202724        0.003938775027445
        0.026607727591555       -0.000005445928120        0.000004419364764        0.004684282618241
        0.029026611918060       -0.000007059835327        0.000005729042705        0.005566444614381
        0.031445496244565       -0.000008852256777        0.000007183597862        0.006442823793349
        0.033864380571070       -0.000011020049263        0.000008942754261        0.007447694650486
        0.036283264897575       -0.000013388881619        0.000010865070695        0.008445403763703
        0.038702149224080       -0.000016168248280        0.000013120522998        0.009561172723157
        0.041121033550585       -0.000019167957325        0.000015554803482        0.010668321360835
        0.043539917877090       -0.000022602434825        0.000018341886592        0.011880992776241
        0.045958802203595       -0.000026272860167        0.000021320467065        0.013083524723137
        0.048377686530100       -0.000030389985630        0.000024661534886        0.014377135481759
        0.050796570856605       -0.000034754558687        0.000028203438996        0.015659047572367
        0.053215455183110       -0.000039564374357        0.000032106651591        0.017015917213833
        0.055634339509615       -0.000044628695935        0.000036216436994        0.018359510554358
        0.058053223836120       -0.000050122643900        0.000040674864173        0.019760520041665
        0.060472108162625       -0.000055873458128        0.000045341790333        0.021146679534550
        0.062890992489130       -0.000062023695053        0.000050332855885        0.022571574167033
        0.065309876815635       -0.000068428288186        0.000055530396428        0.023980071814956
        0.067728761142140       -0.000075187441227        0.000061015680089        0.025407783382235
        0.070147645468645       -0.000082193484981        0.000066701395562        0.026817600464262
        0.072566529795150       -0.000089494860769        0.000072626802297        0.028226583430192
        0.074985414121655       -0.000097030710506        0.000078742581652        0.029616246339149
        0.077404298448160       -0.000104788959539        0.000085038880061        0.030984822620081
        0.079823182774665       -0.000112764408039        0.000091511551396        0.032332746931788
        0.082242067101170       -0.000120876637113        0.000098095275256        0.033639453697328
        0.084660951427675       -0.000129184114972        0.000104837578520        0.034924290912196
        0.087079835754180       -0.000137531430703        0.000111612277691        0.036148225790876
        0.089498720080685       -0.000146047634861        0.000118524184370        0.037349207148184
        0.091917604407190       -0.000154497092030        0.000125382003793        0.038470365265375
        0.094336488733695       -0.000163085014635        0.000132352361064        0.039567637080648
        0.096755373060200       -0.000171491934232        0.000139175919428        0.040567234490491
        0.099174257386705       -0.000180003255314        0.000146084389247        0.041542179605577
        0.101593141713210       -0.000188213868947        0.000152748922284        0.042402957900356
        0.104012026039715       -0.000196491668247        0.000159468179299        0.043238498061585
        0.106430910366220       -0.000204346038197        0.000165843906681        0.043945005246947
        0.108849794692725       -0.000212227774239        0.000172242053021        0.044625879535390
        0.111268679019230       -0.000219562931982        0.000178196722664        0.045164722643136
        0.113687563345735       -0.000226883630187        0.000184139872537        0.045677737467396
        0.116106447672240       -0.000233536870885        0.000189541431766        0.046037802833095
        0.118525331998745       -0.000240132457351        0.000194896414662        0.046372049453092
        0.120944216325250       -0.000245944723670        0.000199615754363        0.046544687106210
        0.123363100651755       -0.000251655437290        0.000204252882396        0.046691723178736
        0.125781984978260       -0.000256474723084        0.000208166597954        0.046670892370028
        0.128200869304765       -0.000261148536048        0.000211962440747        0.046624884585257
        0.130619753631270       -0.000264833238976        0.000214955552381        0.046407258100745
        0.133038637957775       -0.000268329214433        0.000217795661853        0.046165083604086
        0.135457522284280       -0.000270751366550        0.000219764236850        0.045750109177179
        0.137876406610785       -0.000272942882373        0.000221545764310        0.045311414133096
        0.140295290937290       -0.000273991189083        0.000222399384758        0.044701331955620
        0.142714175263795       -0.000274768958274        0.000223033533991        0.044068546298611
        0.145133059590300       -0.000274351578862        0.000222697555791        0.043268362336922
        0.147551943916805       -0.000273626400103        0.000222111818153        0.042446670458926
        0.149970828243310       -0.000271673407189        0.000220529370418        0.041464085991458
        0.152389712569815       -0.000269378583454        0.000218669491461        0.040461353823081
        0.154808596896320       -0.000265844044219        0.000215803169799        0.039306652319285
        0.157227481222825       -0.000261937412984        0.000212634801470        0.038133311963252
        0.159646365549330       -0.000256801041668        0.000208468013993        0.036819205109636
        0.162065249875835       -0.000251266567135        0.000203978011965        0.035488098867283
        0.164484134202340       -0.000244534906121        0.000198515943150        0.034029534203046
        0.166903018528845       -0.000237383791828        0.000192713275262        0.032555720487640
        0.169321902855350       -0.000229090887332        0.000185983439838        0.030969653729700
        0.171740787181855       -0.000220362176372        0.000178899678775        0.029370177973302
        0.174159671508360       -0.000210569724315        0.000170952045525        0.027675313678295
        0.176578555834865       -0.000200330364066        0.000162641426705        0.025968947901843
        0.178997440161370       -0.000189127311837        0.000153548100321        0.024185452621830
        0.181416324487875       -0.000177471670351        0.000144087134289        0.022392407842137
        0.183835208814380       -0.000164973270780        0.000133941591997        0.020541600372990
        0.186254093140885       -0.000152022102629        0.000123428229275        0.018683216457111
        0.188672977467390       -0.000138368427263        0.000112344117787        0.016787240146794
        0.191091861793895       -0.000124267297514        0.000100896472999        0.014885658086851
        0.193510746120400       -0.000109621227173        0.000089005980154        0.012967140458997
        0.195929630446905       -0.000094538413000        0.000076760631097        0.011044962322958
        0.198348514773410       -0.000079083134186        0.000064212455287        0.009126667474651
        0.200767399099915       -0.000063207034299        0.000051322341313        0.007206609486322
        0.203186283426420       -0.000047143080334        0.000038279290134        0.005311088834448
        0.205605167752925       -0.000030679172576        0.000024911242572        0.003415633145636
        0.208024052079430       -0.000014221057955        0.000011547500084        0.001564880121588
        0.210442936405935        0.000002611544938       -0.000002120554718       -0.000284069140708
        0.212861820732440        0.000019239039601       -0.000015622445514       -0.002068954913244
        0.215280705058945        0.000036211377360       -0.000029404562783       -0.003850405812199
        0.217699589385450        0.000052777204559       -0.000042856949170       -0.005549539476259
        0.220118473711955        0.000069654533345       -0.000056562467801       -0.007243731290377
        0.222537358038460        0.000085925590092       -0.000069776009686       -0.008838743713218
        0.224956242364965        0.000102471649965       -0.000083213020329       -0.010427445714916
        0.227375126691470        0.000118217123946       -0.000096000222616       -0.011901759630744
        0.229794011017975        0.000134198531429       -0.000108979137893       -0.013368544841224
        0.232212895344480        0.000149194300433       -0.000121157926559       -0.014707621769055
        0.234631779670985        0.000164384983914       -0.000133495086411       -0.016038111319048
        0.237050663997490        0.000178417984520       -0.000144892359820       -0.017229665320273
        0.239469548323995        0.000192603577877       -0.000156413603068       -0.018411739523789
        0.241888432650500        0.000205476058442       -0.000166868689362       -0.019445914402451
        0.244307316977005        0.000218458167530       -0.000177412821969       -0.020469887191240
        0.246726201303510        0.000229991741172       -0.000186780773867       -0.021339394333320
        0.249145085630015        0.000241591998669       -0.000196202865114       -0.022198148294394
        0.251563969956520        0.000251631414220       -0.000204357525378       -0.022898362980777
        0.253982854283025        0.000261695240832       -0.000212531965225       -0.023587442878166
        0.256401738609530        0.000270111793636       -0.000219368739213       -0.024116457578794
        0.258820622936035        0.000278511787739       -0.000226191993469       -0.024634120913191
        0.261239507262540        0.000285206297579       -0.000231630269677       -0.024992754766140
        0.263658391589045        0.000291845181026       -0.000237023274232       -0.025339978620999
        0.266077275915550        0.000296750471373       -0.000241008439327       -0.025531743008221
        0.268496160242055        0.000301563526251       -0.000244918580472       -0.025712187136834
        0.270915044568560        0.000304646347272       -0.000247423582085       -0.025743207976558
        0.273333928895065        0.000307603286844       -0.000249826216831       -0.025763134790017
        0.275752813221570        0.000308865634027       -0.000250852635060       -0.025642032862732
        0.278171697548075        0.000309971860679       -0.000251752113214       -0.025510185672059
        0.280590581874580        0.000309451651473       -0.000251330710351       -0.025247916971301
        0.283009466201085        0.000308748865153       -0.000250760868739       -0.024975358507246
        0.285428350527590        0.000306519947353       -0.000248951595974       -0.024585017247369
        0.287847234854095        0.000304086079465       -0.000246975704584       -0.024184931117806
        0.290266119180600        0.000300257557116       -0.000243867154219       -0.023681518628458
        0.292685003507105        0.000296206016974       -0.000240577303855       -0.023168976965951
        0.295103887833610        0.000290920892054       -0.000236285605698       -0.022569140247734
        0.297522772160115        0.000285399125569       -0.000231801536981       -0.021960841339567
        0.299941656486620        0.000278832266430       -0.000226468707905       -0.021282585539038
        0.302360540813125        0.000272019639482       -0.000220936091776       -0.020596565710514
        0.304779425139630        0.000264375099758       -0.000214727857762       -0.019858945187939
        0.307198309466135        0.000256480131482       -0.000208316048036       -0.019114269619815
        0.309617193792640        0.000247987855681       -0.000201419168133       -0.018337062623622
        0.312036078119145        0.000239244839390       -0.000194318456767       -0.017553500119996
        0.314454962445650        0.000230156803436       -0.000186937588203       -0.016756872342650
        0.316873846772155        0.000220821864985       -0.000179356003717       -0.015954559321321
        0.319292731098660        0.000211407711369       -0.000171710156597       -0.015158721788346
        0.321711615425165        0.000201754366076       -0.000163869855293       -0.014357820937828
        0.324130499751670        0.000192296603765       -0.000156188493835       -0.013582687772275
        0.326549384078175        0.000182610883470       -0.000148321801899       -0.012803046905377
        0.328968268404680        0.000173399732127       -0.000140840656784       -0.012067898512626
        0.331387152731185        0.000163974963255       -0.000133185828933       -0.011328715144528
        0.333806037057690        0.000155302929431       -0.000126142491938       -0.010651872276679
        0.336224921384195        0.000146434250973       -0.000118939258763       -0.009971369365248
        0.338643805710700        0.000138590530617       -0.000112568636255       -0.009369883351534
        0.341062690037205        0.000130569247429       -0.000106053617740       -0.008765001460492
        0.343481574363710        0.000123834054098       -0.000100583323724       -0.008254365632380
        0.345900458690215        0.000116941925863       -0.000094985390384       -0.007740476516040
        0.348319343016720        0.000111580847372       -0.000090631162529       -0.007334363516714
        0.350738227343225        0.000106084416705       -0.000086166828221       -0.006925009782086
        0.353157111669730        0.000102342904439       -0.000083128051516       -0.006635039034582
        0.355575995996235        0.000098487968941       -0.000079996983037       -0.006341704117698
        0.357994880322740        0.000096586063707       -0.000078452405451       -0.006177243240438
        0.360413764649245        0.000094592396173       -0.000076833133594       -0.006009155445071
        0.362832648975750        0.000094719792144       -0.000076936856251       -0.005977158855273
        0.365251533302255        0.000094776210654       -0.000076982770953       -0.005941132651340
        0.367670417628760        0.000097087754764       -0.000078860591943       -0.006046019994471
        0.370089301955265        0.000099347639904       -0.000080696300576       -0.006146337169162
        0.372508186281770        0.000103959357989       -0.000084442486586       -0.006389913565839
        0.374927070608275        0.000108536708202       -0.000088160609334       -0.006628246172567
        0.377345954934780        0.000115522441293       -0.000093835162901       -0.007009665593807
        0.379764839261285        0.000122488549260       -0.000099493632599       -0.007385041963244
        0.382183723587790        0.000131877273943       -0.000107120115055       -0.007900814341917
        0.384602607914295        0.000141258097142       -0.000114740040958       -0.008409628716989
        0.387021492240800        0.000153031992815       -0.000124304002132       -0.009053670689694
        0.389440376567305        0.000164806280213       -0.000133868147933       -0.009689736334338
        0.391859260893810        0.000178899593731       -0.000145316203635       -0.010453464795693
        0.394278145220315        0.000192997817964       -0.000156768119853       -0.011208109717540
        0.396697029546820        0.000209296562635       -0.000170007707160       -0.012080576670259
        0.399115913873325        0.000225600693435       -0.000183251546911       -0.012942780402277
        0.401534798199830        0.000243943204986       -0.000198151375600       -0.013910846913186
        0.403953682526335        0.000262287345077       -0.000213052410972       -0.014867416130444
        0.406372566852840        0.000282465702175       -0.000229443617227       -0.015915962566207
        0.408791451179345        0.000302637591803       -0.000245829461197       -0.016951742682564
        0.411210335505850        0.000324399893390       -0.000263507457237       -0.018063911809933
        0.413629219832355        0.000346143274182       -0.000281169983540       -0.019162031116139
        0.416048104158860        0.000369196750422       -0.000299896984266       -0.020319500119728
        0.418466988485365        0.000392214563847       -0.000318594925036       -0.021461642498590
        0.420885872811870        0.000416229482255       -0.000338103120406       -0.022644919503063
        0.423304757138375        0.000440187862665       -0.000357565309032       -0.023811621297502
        0.425723641464880        0.000464802176221       -0.000377560638901       -0.025000361588063
        0.428142525791385        0.000489335183728       -0.000397489853576       -0.026171327811133
        0.430561410117890        0.000514159853742       -0.000417656330346       -0.027344664632225
        0.432980294444395        0.000538874878207       -0.000437733682444       -0.028499099400409
        0.435399178770900        0.000563499791698       -0.000457738196318       -0.029635983982269
        0.437818063097405        0.000587983546128       -0.000477627997236       -0.030752929829071
        0.440236947423910        0.000611983935651       -0.000497125529321       -0.031832475148359
        0.442655831750415        0.000635808945615       -0.000516480559937       -0.032891155737432
        0.445074716076920        0.000658752209158       -0.000535119720061       -0.033892978463409
        0.447493600403425        0.000681483694586       -0.000553586818705       -0.034873139170932
        0.449912484729930        0.000702936504436       -0.000571015617792       -0.035777694282882
        0.452331369056435        0.000724139541601       -0.000588241495664       -0.036659935157922
        0.454750253382940        0.000743675124215       -0.000604113256955       -0.037448837841842
        0.457169137709445        0.000762921968967       -0.000619750444529       -0.038214933580023
        0.459588022035950        0.000780127432943       -0.000633729753956       -0.038871263220629
        0.462006906362455        0.000797004881478       -0.000647442578016       -0.039504464998267
        0.464425790688960        0.000811488467867       -0.000659211171734       -0.040013046372661
        0.466844675015465        0.000825605128660       -0.000670681660560       -0.040498360682091
        0.469263559341970        0.000837003257133       -0.000679944147064       -0.040846017829193
        0.471682443668475        0.000847996607083       -0.000688877760822       -0.041170457826525
