#           time (fs)    |     mu_x (e.angstrom)   |     mu_y (e.angstrom)   |     mu_z (e.angstrom)   |
        0.000000000000000       -0.000000000000000       -0.000000000000000        0.000000000000000
        0.002418884326505        0.000000004732187       -0.000000000047319        0.000031975122555
        0.004837768653010        0.000000176416663       -0.000000001751199        0.000595977671754
        0.007256652979515        0.000000514989480       -0.000000005111088        0.001159715460272
        0.009675537306020        0.000001338557481       -0.000000013284660        0.002260502170872
        0.012094421632525        0.000002487729733       -0.000000024686225        0.003360585455565
        0.014513305959030        0.000004436579176       -0.000000044027746        0.004993811278471
        0.016932190285535        0.000006868174449       -0.000000068150131        0.006625706668445
        0.019351074612040        0.000010400183411       -0.000000103201763        0.008777954546412
        0.021769958938545        0.000014567641511       -0.000000144538184        0.010928053127419
        0.024188843265050        0.000020111988585       -0.000000199551375        0.013577020832484
        0.026607727591555        0.000026437238850       -0.000000262273779        0.016222829326684
        0.029026611918060        0.000034381802085       -0.000000341077488        0.019337664097471
        0.031445496244565        0.000043242765857       -0.000000428904311        0.022448143920238
        0.033864380571070        0.000053922397409       -0.000000534778679        0.025989919872484
        0.036283264897575        0.000065641415277       -0.000000650848473        0.029525968916874
        0.038702149224080        0.000079327371458       -0.000000786406809        0.033448299681759
        0.041121033550585        0.000094160832450       -0.000000933160834        0.037363369152374
        0.043539917877090        0.000111051615144       -0.000001100243116        0.041613145821656
        0.045958802203595        0.000129181040358       -0.000001279320278        0.045853982080693
        0.048377686530100        0.000149394876158       -0.000001478901567        0.050372224355437
        0.050796570856605        0.000170919678900       -0.000001691049306        0.054879723582962
        0.053215455183110        0.000194488827678       -0.000001923166622        0.059602530076548
        0.055634339509615        0.000219420936806       -0.000002168171440        0.064312691624760
        0.058053223836120        0.000246287982408       -0.000002431872627        0.069172273594869
        0.060472108162625        0.000274548475986       -0.000002708513840        0.074017236264075
        0.062890992489130        0.000304564709365       -0.000003001831719        0.078943017667495
        0.065309876815635        0.000335982562951       -0.000003307861759        0.083852161772618
        0.067728761142140        0.000368908523167       -0.000003627816432        0.088771927467323
        0.070147645468645        0.000403221531795       -0.000003959970434        0.093673024512745
        0.072566529795150        0.000438729723900       -0.000004302601937        0.098514097682045
        0.074985414121655        0.000475587610280       -0.000004656638625        0.103334488726902
        0.077404298448160        0.000513267372143       -0.000005017071209        0.108024918172298
        0.079823182774665        0.000552237046495       -0.000005387846059        0.112692701549279
        0.082242067101170        0.000591601489985       -0.000005760384279        0.117162439388207
        0.084660951427675        0.000632174380337       -0.000006141954773        0.121607648333193
        0.087079835754180        0.000672669286963       -0.000006520210310        0.125789698837287
        0.089498720080685        0.000714270613460       -0.000006905971758        0.129945449787729
        0.091917604407190        0.000755285121323       -0.000007283018519        0.133776970595894
        0.094336488733695        0.000797284945060       -0.000007665867534        0.137580563413121
        0.096755373060200        0.000838163823712       -0.000008034421231        0.141003901138469
        0.099174257386705        0.000879889660563       -0.000008406942565        0.144397853291365
        0.101593141713210        0.000919946933815       -0.000008759559632        0.147361496597221
        0.104012026039715        0.000960697687500       -0.000009114230800        0.150294494398323
        0.106430910366220        0.000999231332081       -0.000009443520376        0.152753928929460
        0.108849794692725        0.001038292268972       -0.000009772927397        0.155181680223851
        0.111268679019230        0.001074599689875       -0.000010071769161        0.157100131326224
        0.113687563345735        0.001111258151464       -0.000010368825899        0.158986105580670
        0.116106447672240        0.001144652113400       -0.000010630585938        0.160335156505351
        0.118525331998745        0.001178213641465       -0.000010888749077        0.161651200009229
        0.120944216325250        0.001208038320507       -0.000011107485714        0.162411275250094
        0.123363100651755        0.001237842855340       -0.000011320957210        0.163138091096887
        0.125781984978260        0.001263489666018       -0.000011491608858        0.163298796630225
        0.128200869304765        0.001288927469949       -0.000011655518077        0.163426281271603
        0.130619753631270        0.001309850320990       -0.000011774065750        0.162986595719162
        0.133038637957775        0.001330377278131       -0.000011884624130        0.162514026142409
        0.135457522284280        0.001346106914849       -0.000011948222170        0.161482339234754
        0.137876406610785        0.001361258863612       -0.000012002844379        0.160418407175387
        0.140295290937290        0.001371415966700       -0.000012009914258        0.158812404314611
        0.142714175263795        0.001380821734250       -0.000012007301169        0.157175096343829
        0.145133059590300        0.001385128463253       -0.000011957584804        0.155021490517028
        0.147551943916805        0.001388521290429       -0.000011897765307        0.152837815301406
        0.149970828243310        0.001386810985268       -0.000011792336073        0.150171930041534
        0.152389712569815        0.001384038056514       -0.000011676666517        0.147477496522831
        0.154808596896320        0.001376262841717       -0.000011517898029        0.144342706014642
        0.157227481222825        0.001367292666698       -0.000011349019982        0.141181158664135
        0.159646365549330        0.001353528739992       -0.000011140514535        0.137628193414191
        0.162065249875835        0.001338456171484       -0.000010922273343        0.134050513043203
        0.164484134202340        0.001318906600562       -0.000010668753637        0.130136641740490
        0.166903018528845        0.001297955316215       -0.000010406081906        0.126200322563322
        0.169321902855350        0.001272950214127       -0.000010113251173        0.121988422819288
        0.171740787181855        0.001246472537210       -0.000009812022687        0.117756538535197
        0.174159671508360        0.001216466537212       -0.000009486399516        0.113314071079630
        0.176578555834865        0.001184940522676       -0.000009153260158        0.108854244637453
        0.178997440161370        0.001150507526701       -0.000008801995113        0.104252147232361
        0.181416324487875        0.001114531293027       -0.000008444177997        0.099635440637108
        0.183835208814380        0.001076356523269       -0.000008074859540        0.094946959428981
        0.186254093140885        0.001036639866685       -0.000007699991798        0.090246701417709
        0.188672977467390        0.000995509306268       -0.000007320448961        0.085546178654851
        0.191091861793895        0.000952862691050       -0.000006936357447        0.080836749283626
        0.193510746120400        0.000909650056183       -0.000006554466275        0.076198387256085
        0.195929630446905        0.000864971131865       -0.000006168988859        0.071553979375705
        0.198348514773410        0.000820622573350       -0.000005792488824        0.067050601067881
        0.200767399099915        0.000774880425498       -0.000005413297042        0.062543979298673
        0.203186283426420        0.000730397210649       -0.000005049622561        0.058245806557387
        0.205605167752925        0.000684614605394       -0.000004684060218        0.053947084679672
        0.208024052079430        0.000641034081192       -0.000004340191080        0.049920554673494
        0.210442936405935        0.000596268013530       -0.000003995132063        0.045896012309207
        0.212861820732440        0.000554643196942       -0.000003677465202        0.042202652671779
        0.215280705058945        0.000511964097720       -0.000003359192403        0.038513611727237
        0.217699589385450        0.000473342278313       -0.000003073436067        0.035208994026567
        0.220118473711955        0.000433812273573       -0.000002787541954        0.031910774585045
        0.222537358038460        0.000399213045662       -0.000002538632042        0.029043564637497
        0.224956242364965        0.000363863693380       -0.000002289940259        0.026184538829519
        0.227375126691470        0.000334256858933       -0.000002081977541        0.023795660885507
        0.229794011017975        0.000304066811166       -0.000001874483948        0.021416421730438
        0.232212895344480        0.000280350609618       -0.000001710690074        0.019538351712879
        0.234631779670985        0.000256223661708       -0.000001547521001        0.017671012034640
        0.237050663997490        0.000239203787963       -0.000001430210742        0.016327212836953
        0.239469548323995        0.000221947780194       -0.000001313595887        0.014994847138427
        0.241888432650500        0.000212317647110       -0.000001244162912        0.014199356524010
        0.244307316977005        0.000202624677557       -0.000001175420335        0.013415596200175
        0.246726201303510        0.000200947363826       -0.000001154334008        0.013172775138965
        0.249145085630015        0.000199375754173       -0.000001133864985        0.012941564670281
        0.251563969956520        0.000206068053014       -0.000001160676154        0.013246011059476
        0.253982854283025        0.000213026481985       -0.000001187968250        0.013561529916330
        0.256401738609530        0.000228345430904       -0.000001261322694        0.014398159628364
        0.258820622936035        0.000244079613266       -0.000001334960154        0.015244911603087
        0.261239507262540        0.000268111841127       -0.000001452619189        0.016589205756201
        0.263658391589045        0.000292694084842       -0.000001570300640        0.017942274393482
        0.266077275915550        0.000325348260670       -0.000001729169236        0.019760688721451
        0.268496160242055        0.000358670181792       -0.000001887733531        0.021586154513220
        0.270915044568560        0.000399672791309       -0.000002083897142        0.023836683791599
        0.273333928895065        0.000441441406916       -0.000002279358919        0.026092195907524
        0.275752813221570        0.000490336019308       -0.000002508130827        0.028725083639131
        0.278171697548075        0.000540073374508       -0.000002735727939        0.031360576241143
        0.280590581874580        0.000596223494630       -0.000002991709352        0.034319157269984
        0.283009466201085        0.000653269911967       -0.000003245964565        0.037277697962161
        0.285428350527590        0.000715865443741       -0.000003523119803        0.040499359418976
        0.287847234854095        0.000779386413569       -0.000003797919142        0.043718115155495
        0.290266119180600        0.000847453690040       -0.000004089667989        0.047135359174557
        0.292685003507105        0.000916450349997       -0.000004378357701        0.050546663019987
        0.295103887833610        0.000988865615772       -0.000004677686436        0.054088253029419
        0.297522772160115        0.001062188697687       -0.000004973189805        0.057620753558365
        0.299941656486620        0.001137694861502       -0.000005272781503        0.061212924648388
        0.302360540813125        0.001214061916071       -0.000005567735714        0.064792798496681
        0.304779425139630        0.001291288326121       -0.000005860119236        0.068360511416369
        0.307198309466135        0.001369303970567       -0.000006147031204        0.071912718557360
        0.309617193792640        0.001446788903978       -0.000006424746946        0.075380936278497
        0.312036078119145        0.001524967776655       -0.000006696165590        0.078830496993381
        0.314454962445650        0.001601183278017       -0.000006951944605        0.082125462503197
        0.316873846772155        0.001677975327395       -0.000007200645605        0.085398734738246
        0.319292731098660        0.001751353980403       -0.000007427597315        0.088449228772024
        0.321711615425165        0.001825171665014       -0.000007646774993        0.091475164620738
        0.324130499751670        0.001894134836793       -0.000007838577437        0.094213722411028
        0.326549384078175        0.001963381768241       -0.000008022037195        0.096925082818599
        0.328968268404680        0.002026368828590       -0.000008173122758        0.099289149606548
        0.331387152731185        0.002089469352521       -0.000008315466661        0.101623657056497
        0.333806037057690        0.002144967341009       -0.000008421195592        0.103556663084624
        0.336224921384195        0.002200396521818       -0.000008517993135        0.105458072997605
        0.338643805710700        0.002246969714787       -0.000008574806935        0.106910409953322
        0.341062690037205        0.002293283169387       -0.000008622743048        0.108329482777747
        0.343481574363710        0.002329601987431       -0.000008628290096        0.109259365192002
        0.345900458690215        0.002365465002524       -0.000008625282864        0.110154722707721
        0.348319343016720        0.002390333697391       -0.000008578509390        0.110528919609886
        0.350738227343225        0.002414549063860       -0.000008523790913        0.110867770773597
        0.353157111669730        0.002426931632362       -0.000008424991673        0.110662194948478
        0.355575995996235        0.002438465640078       -0.000008319146899        0.110420918670598
        0.357994880322740        0.002437509431856       -0.000008169971536        0.109621063134648
        0.360413764649245        0.002435515488671       -0.000008014931691        0.108785637668451
        0.362832648975750        0.002420572004578       -0.000007818344746        0.107386851452054
        0.365251533302255        0.002404411374586       -0.000007617334016        0.105953122567512
        0.367670417628760        0.002375053792891       -0.000007377528715        0.103960720524186
        0.370089301955265        0.002344312990921       -0.000007134965117        0.101934503294782
        0.372508186281770        0.002300350008980       -0.000006857233326        0.099363707415572
        0.374927070608275        0.002254854440316       -0.000006578586911        0.096760719223588
        0.377345954934780        0.002196340079259       -0.000006269149837        0.093636431769225
        0.379764839261285        0.002136163574924       -0.000005960763529        0.090482056985613
        0.382183723587790        0.002063402663093       -0.000005626569730        0.086838468609572
        0.384602607914295        0.001988872630754       -0.000005295449996        0.083167358276473
        0.387021492240800        0.001902421757125       -0.000004943948922        0.079047397145412
        0.389440376567305        0.001814119744444       -0.000004597534954        0.074902909828883
        0.391859260893810        0.001714783554524       -0.000004236435480        0.070357540499436
        0.394278145220315        0.001613541104297       -0.000003882356631        0.065791033233086
        0.396697029546820        0.001502363896576       -0.000003519380712        0.060878416662950
        0.399115913873325        0.001389253659610       -0.000003165212426        0.055948397517987
        0.401534798199830        0.001267506328884       -0.000002807854200        0.050732926025416
        0.403953682526335        0.001143828489682       -0.000002460882616        0.045504082270492
        0.406372566852840        0.001012990952812       -0.000002116182818        0.040055305464716
        0.408791451179345        0.000880255113112       -0.000001783187617        0.034597423476054
        0.411210335505850        0.000741994441282       -0.000001457532249        0.028988883122207
        0.413629219832355        0.000601897195553       -0.000001144596185        0.023375678132072
        0.416048104158860        0.000458041763246       -0.000000843546956        0.017683671554171
        0.418466988485365        0.000312440286782       -0.000000555898945        0.011991546950821
        0.420885872811870        0.000164950329781       -0.000000284061204        0.006293839887261
        0.423304757138375        0.000015832382375       -0.000000025957975        0.000600597074547
        0.425723641464880       -0.000133232566423        0.000000213110168       -0.005024892139804
        0.428142525791385       -0.000283781741705        0.000000438460957       -0.010641371372223
        0.430561410117890       -0.000432298000537        0.000000642296796       -0.016117893831854
        0.432980294444395       -0.000582131334723        0.000000832771210       -0.021580969903426
        0.435399178770900       -0.000727948206393        0.000001000013512       -0.026834251689218
        0.437818063097405       -0.000874894408950        0.000001154565090       -0.032069832072673
        0.440236947423910       -0.001015872649751        0.000001284920647       -0.037029340839084
        0.442655831750415       -0.001157775100453        0.000001403536447       -0.041967144635470
        0.445074716076920       -0.001291826035261        0.000001497711452       -0.046567295291176
        0.447493600403425       -0.001426582265273        0.000001581335195       -0.051142055605782
        0.449912484729930       -0.001551706832072        0.000001640937102       -0.055323334100061
        0.452331369056435       -0.001677307869588        0.000001691365370       -0.059475917264603
        0.454750253382940       -0.001791634862482        0.000001718781865       -0.063185902815033
        0.457169137709445       -0.001906203705246        0.000001738540114       -0.066864324852873
        0.459588022035950       -0.002008026484527        0.000001736802284       -0.070058592630163
        0.462006906362455       -0.002109854962599        0.000001729007681       -0.073218915070409
        0.464425790688960       -0.002197665914234        0.000001701644487       -0.075861803368215
        0.466844675015465       -0.002285249221710        0.000001669862475       -0.078468892554745
        0.469263559341970       -0.002357771276548        0.000001620753247       -0.080534120783033
        0.471682443668475       -0.002429839480646        0.000001568854172       -0.082562257160937
