#           time (fs)    |     mu_x (e.angstrom)   |     mu_y (e.angstrom)   |     mu_z (e.angstrom)   |
        0.000000000000000       -0.000000000000000       -0.000000000000000        0.000000000000000
        0.002418884326505        0.000000001013931        0.000000001741717        0.000019307923674
        0.004837768653010        0.000000004055181        0.000000006966078        0.000038611064493
        0.007256652979515        0.000000009074591        0.000000015588422        0.000057602952178
        0.009675537306020        0.000000022228903        0.000000038185295        0.000105828569609
        0.012094421632525        0.000000040278751        0.000000069191537        0.000153411464458
        0.014513305959030        0.000000081584213        0.000000140147143        0.000258948329354
        0.016932190285535        0.000000133591741        0.000000229486556        0.000363451612700
        0.019351074612040        0.000000232549855        0.000000399479221        0.000553602051292
        0.021769958938545        0.000000350754056        0.000000602532651        0.000742230067281
        0.024188843265050        0.000000547476941        0.000000940467848        0.001042679468151
        0.026607727591555        0.000000774504976        0.000001330461161        0.001340982926015
        0.029026611918060        0.000001118545461        0.000001921461827        0.001775296050372
        0.031445496244565        0.000001506176287        0.000002587342043        0.002206670932761
        0.033864380571070        0.000002055066847        0.000003530238723        0.002795823370719
        0.036283264897575        0.000002662709282        0.000004574059600        0.003381045662117
        0.038702149224080        0.000003480242297        0.000005978436245        0.004142998243557
        0.041121033550585        0.000004373161225        0.000007512311221        0.004899802249046
        0.043539917877090        0.000005527448991        0.000009495172624        0.005849125559812
        0.045958802203595        0.000006774779231        0.000011637862996        0.006791832915746
        0.048377686530100        0.000008336137310        0.000014319998772        0.007939388294554
        0.050796570856605        0.000010008729713        0.000017193213668        0.009078593985499
        0.053215455183110        0.000012047431552        0.000020695341087        0.010431276492292
        0.055634339509615        0.000014215580055        0.000024419832958        0.011773597291490
        0.058053223836120        0.000016799534146        0.000028858606719        0.013334145154707
        0.060472108162625        0.000019530635709        0.000033550151525        0.014882034909626
        0.062890992489130        0.000022723038872        0.000039034132513        0.016648908891175
        0.065309876815635        0.000026079240330        0.000044799487434        0.018400543995283
        0.067728761142140        0.000029936261906        0.000051425164576        0.020367878973789
        0.070147645468645        0.000033972148760        0.000058358097769        0.022317116217178
        0.072566529795150        0.000038540700536        0.000066206057164        0.024474746100613
        0.074985414121655        0.000043301082535        0.000074383543784        0.026611153894528
        0.077404298448160        0.000048616728089        0.000083514877326        0.028944709753157
        0.079823182774665        0.000054134575089        0.000092993553708        0.031253672498003
        0.082242067101170        0.000060219629938        0.000103446595481        0.033744752579814
        0.084660951427675        0.000066514209014        0.000114259559021        0.036207646715492
        0.087079835754180        0.000073376079518        0.000126047031829        0.038834055792224
        0.089498720080685        0.000080451340630        0.000138201067857        0.041428494857167
        0.091917604407190        0.000088081145092        0.000151307714522        0.044164549173146
        0.094336488733695        0.000095924397932        0.000164781023351        0.046864694027821
        0.096755373060200        0.000104295907856        0.000179161787984        0.049681587009221
        0.099174257386705        0.000112876826800        0.000193902275603        0.052458516274031
        0.101593141713210        0.000121945759911        0.000209481089129        0.055324739124682
        0.104012026039715        0.000131215747513        0.000225405273796        0.058146873862599
        0.106430910366220        0.000140919437047        0.000242074485863        0.061028684244010
        0.108849794692725        0.000150811369271        0.000259067060464        0.063862260004313
        0.111268679019230        0.000161068826395        0.000276687546662        0.066724191189510
        0.113687563345735        0.000171497195019        0.000294601623329        0.069533769737364
        0.116106447672240        0.000182209573109        0.000313003582742        0.072339171954907
        0.118525331998745        0.000193071032557        0.000331661632217        0.075088184355861
        0.120944216325250        0.000204122493757        0.000350646076014        0.077799789513036
        0.123363100651755        0.000215296811232        0.000369841559810        0.080451101732293
        0.125781984978260        0.000226555787267        0.000389182477100        0.083031602332775
        0.128200869304765        0.000237907186637        0.000408682156050        0.085548094153271
        0.130619753631270        0.000249228017541        0.000428129328923        0.087960727008752
        0.133038637957775        0.000260606899101        0.000447676217433        0.090305874873402
        0.135457522284280        0.000271831825464        0.000466958643285        0.092515000151959
        0.137876406610785        0.000283076835714        0.000486275564839        0.094653454494641
        0.140295290937290        0.000294038312416        0.000505105430960        0.096625120749004
        0.142714175263795        0.000304978730413        0.000523899117445        0.098523268493602
        0.145133059590300        0.000315502022768        0.000541976260728        0.100225754565523
        0.147551943916805        0.000325960422666        0.000559941926209        0.101852257738049
        0.149970828243310        0.000335866439554        0.000576958699967        0.103256582833688
        0.152389712569815        0.000345661582717        0.000593785008812        0.104582884642106
        0.154808596896320        0.000354769895791        0.000609431469241        0.105663278408938
        0.157227481222825        0.000363719800501        0.000624805809339        0.106664068690120
        0.159646365549330        0.000371851794000        0.000638775126338        0.107398393787748
        0.162065249875835        0.000379776926378        0.000652389090525        0.108052026390381
        0.164484134202340        0.000386759018572        0.000664383081561        0.108422146823819
        0.166903018528845        0.000393485544972        0.000675938054660        0.108711002278487
        0.169321902855350        0.000399152419834        0.000685672736208        0.108703091639914
        0.171740787181855        0.000404515458738        0.000694885481197        0.108613879349736
        0.174159671508360        0.000408713245209        0.000702096530153        0.108218664079012
        0.176578555834865        0.000412560055577        0.000708704665185        0.107742659232282
        0.178997440161370        0.000415149391732        0.000713152682555        0.106955593042798
        0.181416324487875        0.000417342434891        0.000716919940733        0.106088804487814
        0.183835208814380        0.000418201355435        0.000718395411841        0.104910171196733
        0.186254093140885        0.000418621168923        0.000719116577976        0.103653437613443
        0.188672977467390        0.000417647756822        0.000717444427492        0.102088380747676
        0.191091861793895        0.000416195581149        0.000714949850404        0.100447393583330
        0.193510746120400        0.000413310327677        0.000709993496483        0.098505872287425
        0.195929630446905        0.000409910430645        0.000704153081771        0.096491125078254
        0.198348514773410        0.000405058252766        0.000695817901558        0.094187797011021
        0.200767399099915        0.000399659900803        0.000686544497998        0.091814461871064
        0.203186283426420        0.000392811770455        0.000674780626449        0.089168494926285
        0.205605167752925        0.000385390802255        0.000662032729234        0.086456228130613
        0.208024052079430        0.000376544948725        0.000646837124576        0.083491043936353
        0.210442936405935        0.000367104913272        0.000630620830227        0.080463723641474
        0.212861820732440        0.000356287567284        0.000612038552177        0.077206676865066
        0.215280705058945        0.000344860395917        0.000592408713044        0.073892077076982
        0.217699589385450        0.000332126052235        0.000570533373902        0.070374075571939
        0.220118473711955        0.000318772242741        0.000547593914397        0.066803481475384
        0.222537358038460        0.000304203426787        0.000522567278146        0.063058553236360
        0.224956242364965        0.000289011726319        0.000496470650056        0.059266323921223
        0.227375126691470        0.000272718259466        0.000468481370260        0.055331137648718
        0.229794011017975        0.000255804842329        0.000439427140326        0.051354223096608
        0.232212895344480        0.000237922609882        0.000408708643744        0.047267569900833
        0.234631779670985        0.000219429755664        0.000376941222934        0.043144989812615
        0.237050663997490        0.000200118990995        0.000343768761963        0.038947234193602
        0.239469548323995        0.000180213278020        0.000309574302142        0.034719526835566
        0.241888432650500        0.000159656385640        0.000274261215242        0.030452035554127
        0.244307316977005        0.000138526424031        0.000237963714988        0.026160685266123
        0.246726201303510        0.000116925373418        0.000200856949744        0.021865243059306
        0.249145085630015        0.000094779111122        0.000162813626566        0.017552095394680
        0.251563969956520        0.000072352441684        0.000124288594751        0.013270316684035
        0.253982854283025        0.000049414085282        0.000084884595598        0.008976990332814
        0.256401738609530        0.000026393570758        0.000045339443197        0.004749736120488
        0.258820622936035        0.000002900170768        0.000004981978623        0.000517040800670
        0.261239507262540       -0.000020472801535       -0.000035168633983       -0.003616150153845
        0.263658391589045       -0.000044275044136       -0.000076056634568       -0.007748780767513
        0.266077275915550       -0.000067753317671       -0.000116388136481       -0.011750237646775
        0.268496160242055       -0.000091612960954       -0.000157374740635       -0.015745289149576
        0.270915044568560       -0.000114947611173       -0.000197459523849       -0.019579723203139
        0.273333928895065       -0.000138612030062       -0.000238110766692       -0.023402111440567
        0.275752813221570       -0.000161556451978       -0.000277525207803       -0.027037090613760
        0.278171697548075       -0.000184775972893       -0.000317412194593       -0.030654632552877
        0.280590581874580       -0.000207089981771       -0.000355743699050       -0.034061009353430
        0.283009466201085       -0.000229622020185       -0.000394449712772       -0.037444846648579
        0.285428350527590       -0.000251075890841       -0.000431303653670       -0.040597132755915
        0.287847234854095       -0.000272689016704       -0.000468431138707       -0.043722101590849
        0.290266119180600       -0.000293067386969       -0.000503437562250       -0.046598783585116
        0.292685003507105       -0.000313545243199       -0.000538614855657       -0.049443725251965
        0.295103887833610       -0.000332650808543       -0.000571434827856       -0.052027516797969
        0.297522772160115       -0.000351795809412       -0.000604322512528       -0.054575524435714
        0.299941656486620       -0.000369452738496       -0.000634653986508       -0.056853551283987
        0.302360540813125       -0.000387089477717       -0.000664950745666       -0.059092149228272
        0.304779425139630       -0.000403146482734       -0.000692533835970       -0.061056064473812
        0.307198309466135       -0.000419124785303       -0.000719981695687       -0.062977317748308
        0.309617193792640       -0.000433457786321       -0.000744603255131       -0.064623345898688
        0.312036078119145       -0.000447655343696       -0.000768992111098       -0.066223898487704
        0.314454962445650       -0.000460169672653       -0.000790489516846       -0.067552808018067
        0.316873846772155       -0.000472494207467       -0.000811660852966       -0.068833849682613
        0.319292731098660       -0.000483126305011       -0.000829924921400       -0.069850854877489
        0.321711615425165       -0.000493517219187       -0.000847774640957       -0.070818017394969
        0.324130499751670       -0.000502235785973       -0.000862751605390       -0.071532611378747
        0.326549384078175       -0.000510665254659       -0.000877231910241       -0.072195796183046
        0.328968268404680       -0.000517471827903       -0.000888924411335       -0.072621518106179
        0.331387152731185       -0.000523945310994       -0.000900044680606       -0.072994658364338
        0.333806037057690       -0.000528874246917       -0.000908511736219       -0.073148798725898
        0.336224921384195       -0.000533430399845       -0.000916338373064       -0.073249559895278
        0.338643805710700       -0.000536548252966       -0.000921694311977       -0.073152808930827
        0.341062690037205       -0.000539258228864       -0.000926349544825       -0.073002232783282
        0.343481574363710       -0.000540662529687       -0.000928761907029       -0.072678277717834
        0.345900458690215       -0.000541628675749       -0.000930421550155       -0.072300375682836
        0.348319343016720       -0.000541446119181       -0.000930107974873       -0.071775453430939
        0.350738227343225       -0.000540800080873       -0.000928998171779       -0.071196755886909
        0.353157111669730       -0.000539184148446       -0.000926222312875       -0.070499168465818
        0.355575995996235       -0.000537084406059       -0.000922615304520       -0.069748237288116
        0.357994880322740       -0.000534212455612       -0.000917681831081       -0.068907837786712
        0.360413764649245       -0.000530841328259       -0.000911890809286       -0.068014750032916
        0.362832648975750       -0.000526911194894       -0.000905139566680       -0.067062407440677
        0.365251533302255       -0.000522471357278       -0.000897512690551       -0.066058218510571
        0.367670417628760       -0.000517697519100       -0.000889312113848       -0.065025270050419
        0.370089301955265       -0.000512408086061       -0.000880225783732       -0.063941464992294
        0.372508186281770       -0.000507017457121       -0.000870965670733       -0.062859164812339
        0.374927070608275       -0.000501109699897       -0.000860817169505       -0.061727106652042
        0.377345954934780       -0.000495337120796       -0.000850900934407       -0.060626079808935
        0.379764839261285       -0.000489049886914       -0.000840100559665       -0.059476463848208
        0.382183723587790       -0.000483133390517       -0.000829937100404       -0.058386174454973
        0.384602607914295       -0.000476708306146       -0.000818899922965       -0.057248497416569
        0.387021492240800       -0.000470884241566       -0.000808895245089       -0.056196739627802
        0.389440376567305       -0.000464560780789       -0.000798032638864       -0.055098792314123
        0.391859260893810       -0.000459058883162       -0.000788581386292       -0.054111212480643
        0.394278145220315       -0.000453069392800       -0.000778292481833       -0.053078604259485
        0.396697029546820       -0.000448107889203       -0.000769769529694       -0.052178262104342
        0.399115913873325       -0.000442672660517       -0.000760432748236       -0.051233985041525
        0.401534798199830       -0.000438453503568       -0.000753185015046       -0.050440961093858
        0.403953682526335       -0.000433775983090       -0.000745149841582       -0.049605000922666
        0.406372566852840       -0.000430480303260       -0.000739488477133       -0.048936056702228
        0.408791451179345       -0.000426742534309       -0.000733067629736       -0.048225057061274
        0.411210335505850       -0.000424526399719       -0.000729260731180       -0.047693353644735
        0.413629219832355       -0.000421884783579       -0.000724722879461       -0.047120339140045
        0.416048104158860       -0.000420875352022       -0.000722988881177       -0.046735218773717
        0.418466988485365       -0.000419456813498       -0.000720552059398       -0.046309381441617
        0.420885872811870       -0.000419748955706       -0.000721053932359       -0.046076215810507
        0.423304757138375       -0.000419647591763       -0.000720879782387       -0.045802768492470
        0.425723641464880       -0.000421301057553       -0.000723720166113       -0.045722876131776
        0.428142525791385       -0.000422575340115       -0.000725909132320       -0.045602975140725
        0.430561410117890       -0.000425612530217       -0.000731126507273       -0.045673609304417
        0.432980294444395       -0.000428283125081       -0.000735714089826       -0.045704347585938
        0.435399178770900       -0.000432687521224       -0.000743280080579       -0.045918754691111
        0.437818063097405       -0.000436735774671       -0.000750234235698       -0.046093225486150
        0.440236947423910       -0.000442451069205       -0.000760052115781       -0.046440773055283
        0.442655831750415       -0.000447818202338       -0.000769271871765       -0.046748202877086
        0.445074716076920       -0.000454748156430       -0.000781176320061       -0.047214574727052
        0.447493600403425       -0.000461335194956       -0.000792491656659       -0.047640523298191
        0.449912484729930       -0.000469344241527       -0.000806249793155       -0.048207978598076
        0.452331369056435       -0.000477012695686       -0.000819422809564       -0.048734602275976
        0.454750253382940       -0.000485927290013       -0.000834736515434       -0.049382294036775
        0.457169137709445       -0.000494500586053       -0.000849463889327       -0.049988668209198
        0.459588022035950       -0.000504111293554       -0.000865973393368       -0.050693015796533
        0.462006906362455       -0.000513376944753       -0.000881890110321       -0.051355510770260
        0.464425790688960       -0.000523441242214       -0.000899178800972       -0.052090620162742
        0.466844675015465       -0.000533153734182       -0.000915863110893       -0.052783324214887
        0.469263559341970       -0.000543399487818       -0.000933463510910       -0.053521448978807
        0.471682443668475       -0.000553283839948       -0.000950443045997       -0.054216631503135
