#           time (fs)       | force (atom_1) (H/b)   |  force (atom_2) (H/b)  |           ...          |  force (atom_N) (H/b)  |
        0.000000000000000       -0.000000000000000       -0.000000000000000       -0.001977038000788       -0.000000000000000       -0.000000000000000        0.001977038000788
        0.120944216325250       -0.000000687036588       -0.000000089209301       -0.000165046758327        0.000000687036588        0.000000089209567        0.000165046758327
        0.241888432650500        0.000013592365845       -0.000005782543114        0.001638157332445       -0.000013592365845        0.000005782543748       -0.001638157332445
        0.362832648975750        0.000042147688045       -0.000004959157288        0.003397771879588       -0.000042147688045        0.000004959158092       -0.003397771879588
        0.483776865301000        0.000084280345248       -0.000010049695366        0.005112614548948       -0.000084280345248        0.000010049695738       -0.005112614548948
        0.604721081626250        0.000138658590004       -0.000002636200047        0.006750956265341       -0.000138658590004        0.000002636199527       -0.006750956265341
        0.725665297951500        0.000204298510985        0.000031976571429        0.008315422106345       -0.000204298510985       -0.000031976572671       -0.008315422106345
        0.846609514276750        0.000279375396308        0.000056002879077        0.009777008056192       -0.000279375396308       -0.000056002880864       -0.009777008056192
        0.967553730602000        0.000362785277227        0.000110309230590        0.011142398621129       -0.000362785277227       -0.000110309231607       -0.011142398621129
        1.088497946927250        0.000452347516867        0.000138933447105        0.012385225098047       -0.000452347516867       -0.000138933446289       -0.012385225098047
        1.209442163252500        0.000546943338403        0.000127238890052        0.013515074707725       -0.000546943338403       -0.000127238886471       -0.013515074707725
        1.330386379577750        0.000644287630917        0.000175804109052        0.014511321558363       -0.000644287630917       -0.000175804101652       -0.014511321558363
        1.451330595903000        0.000743160483564        0.000077649157950        0.015381626722405       -0.000743160483564       -0.000077649147906       -0.015381626722405
        1.572274812228250        0.000841368792490        0.000204731814414        0.016112322872220       -0.000841368792490       -0.000204731801730       -0.016112322872220
        1.693219028553500        0.000937401815857        0.000108451921620        0.016705383208089       -0.000937401815857       -0.000108451909354       -0.016705383208089
        1.814163244878750        0.001029412712101        0.000296109883691        0.017156413212178       -0.001029412712101       -0.000296109872871       -0.017156413212178
        1.935107461204000        0.001115604237665        0.000271171558416        0.017462678434638       -0.001115604237665       -0.000271171551736       -0.017462678434638
        2.056051677529250        0.001194371366668        0.000367643385375        0.017624784867317       -0.001194371366668       -0.000367643383790       -0.017624784867317
        2.176995893854500        0.001263934891771        0.000392855637711        0.017640712895002       -0.001263934891771       -0.000392855641698       -0.017640712895002
        2.297940110179750        0.001322618241062        0.000296582398816        0.017510208987272       -0.001322618241062       -0.000296582407560       -0.017510208987272
        2.418884326505000        0.001368983941142        0.000354248529177        0.017236122254430       -0.001368983941142       -0.000354248541481       -0.017236122254430
        2.539828542830250        0.001401233703437        0.000183759780669        0.016816526981074       -0.001401233703437       -0.000183759793705       -0.016816526981074
        2.660772759155500        0.001418120747025        0.000299731279420        0.016256292704173       -0.001418120747025       -0.000299731292044       -0.016256292704173
        2.781716975480750        0.001418231764107        0.000234169423000        0.015557789692476       -0.001418231764107       -0.000234169432577       -0.015557789692476
        2.902661191806000        0.001399898033925        0.000363450825553        0.014720503042822       -0.001399898033925       -0.000363450831912       -0.014720503042822
        3.023605408131250        0.001362806931011        0.000380467383674        0.013757908163517       -0.001362806931011       -0.000380467386279       -0.013757908163517
        3.144549624456500        0.001304477652643        0.000394928700002        0.012660596934900       -0.001304477652643       -0.000394928699795       -0.012660596934900
        3.265493840781750        0.001225819121831        0.000341908337900        0.011452479356985       -0.001225819121831       -0.000341908336109       -0.011452479356985
        3.386438057107000        0.001123866833434        0.000226069701924        0.010119389104487       -0.001123866833434       -0.000226069699644       -0.010119389104487
        3.507382273432250        0.001000494106507        0.000099035536144        0.008691424553990       -0.001000494106507       -0.000099035534535       -0.008691424553990
        3.628326489757500        0.000853358553996        0.000015423805542        0.007159459987970       -0.000853358553996       -0.000015423804703       -0.007159459987970
        3.749270706082750        0.000684620479995       -0.000048163677358        0.005552325927804       -0.000684620479995        0.000048163677513       -0.005552325927804
        3.870214922408000        0.000493155859155       -0.000010105636139        0.003869564453363       -0.000493155859155        0.000010105635827       -0.003869564453363
        3.991159138733250        0.000281310030082       -0.000003101666062        0.002137312993574       -0.000281310030082        0.000003101665984       -0.002137312993574
        4.112103355058500        0.000049197817705        0.000007178561715        0.000362214157926       -0.000049197817705       -0.000007178561778       -0.000362214157926
        4.233047571383750       -0.000200059134808       -0.000066448020668       -0.001428315396034        0.000200059134808        0.000066448020545        0.001428315396034
        4.353991787709000       -0.000465796413462       -0.000225003121138       -0.003227046962088        0.000465796413462        0.000225003120430        0.003227046962088
        4.474936004034250       -0.000743644172862       -0.000409596973233       -0.005002636414120        0.000743644172862        0.000409596970708        0.005002636414120
        4.595880220359500       -0.001032116609273       -0.000602431515199       -0.006746151742120        0.001032116609273        0.000602431510286        0.006746151742120
        4.716824436684750       -0.001325061998540       -0.000737780450928       -0.008420065812943        0.001325061998540        0.000737780443445        0.008420065812943
        4.837768653010000       -0.001620314003254       -0.000759130111988       -0.010015663749655        0.001620314003254        0.000759130102516        0.010015663749655
        4.958712869335250       -0.001910910483521       -0.000779510841126       -0.011496450789141        0.001910910483521        0.000779510832132        0.011496450789141
        5.079657085660500       -0.002194191689895       -0.000717867357231       -0.012855117296641        0.002194191689895        0.000717867350750        0.012855117296641
        5.200601301985750       -0.002462390435308       -0.000762151144651       -0.014056141995780        0.002462390435308        0.000762151143526        0.014056141995780
        5.321545518311000       -0.002713401796574       -0.000885531063907       -0.015099279521823        0.002713401796574        0.000885531069868        0.015099279521823
        5.442489734636251       -0.002937852162423       -0.001002499863916       -0.015945064841658        0.002937852162423        0.001002499877257        0.015945064841658
        5.563433950961501       -0.003135815405293       -0.001315793168581       -0.016608070906290        0.003135815405293        0.001315793188884        0.016608070906290
        5.684378167286750       -0.003295918849961       -0.001312577779426       -0.017042484158289        0.003295918849961        0.001312577803468        0.017042484158289
        5.805322383612000       -0.003421026878955       -0.001530357252946       -0.017278794724984        0.003421026878955        0.001530357277813        0.017278794724984
        5.926266599937250       -0.003499907649444       -0.001307925483562       -0.017275265605709        0.003499907649444        0.001307925504984        0.017275265605709
        6.047210816262500       -0.003536274427502       -0.001302985578685       -0.017066078365061        0.003536274427502        0.001302985593572        0.017066078365061
        6.168155032587750       -0.003523092168468       -0.001107455833947       -0.016631738184549        0.003523092168468        0.001107455840784        0.016631738184549
        6.289099248913001       -0.003461685213265       -0.001072666015462       -0.015993038589172        0.003461685213265        0.001072666013955        0.015993038589172
        6.410043465238251       -0.003351781973913       -0.001144042495831       -0.015161786196241        0.003351781973913        0.001144042487290        0.015161786196241
        6.530987681563500       -0.003191184270515       -0.001198962665229       -0.014140226182977        0.003191184270515        0.001198962652703        0.014140226182977
        6.651931897888750       -0.002985391715278       -0.001353013725010       -0.012963769385145        0.002985391715278        0.001353013711061        0.012963769385145
        6.772876114214000       -0.002730941660280       -0.001315865117285       -0.011626799066619        0.002730941660280        0.001315865105379        0.011626799066619
        6.893820330539250       -0.002436350620239       -0.001211089455872       -0.010174050046101        0.002436350620239        0.001211089447611        0.010174050046101
        7.014764546864500       -0.002099689880831       -0.000964039601996       -0.008603993668668        0.002099689880831        0.000964039597572        0.008603993668668
        7.135708763189751       -0.001730807917711       -0.000665189845550       -0.006962492700406        0.001730807917711        0.000665189844086        0.006962492700406
        7.256652979515001       -0.001329075537402       -0.000433490962910       -0.005250635450021        0.001329075537402        0.000433490962727        0.005250635450021
        7.377597195840250       -0.000906064590131       -0.000311536501541       -0.003516721656636        0.000906064590131        0.000311536501430        0.003516721656636
        7.498541412165500       -0.000459874109777       -0.000288305930176       -0.001754281838860        0.000459874109777        0.000288305929475        0.001754281838860
        7.619485628490750       -0.000003797442919       -0.000388389661689       -0.000014241847882        0.000003797442919        0.000388389659286        0.000014241847882
        7.740429844816000        0.000467026556068       -0.000355366113201        0.001722813565272       -0.000467026556068        0.000355366109918       -0.001722813565272
        7.861374061141250        0.000938003348354       -0.000317159718556        0.003404422245295       -0.000938003348354        0.000317159713036       -0.003404422245295
        7.982318277466501        0.001413293179727       -0.000013074616252        0.005048417558068       -0.001413293179727        0.000013074611657       -0.005048417558068
        8.103262493791750        0.001879811901175        0.000291247601780        0.006610841821974       -0.001879811901175       -0.000291247606013       -0.006610841821974
        8.224206710117000        0.002338386454604        0.000658237668298        0.008098547415446       -0.002338386454604       -0.000658237669937       -0.008098547415446
        8.345150926442249        0.002780399358905        0.000881870945182        0.009485697885551       -0.002780399358905       -0.000881870945267       -0.009485697885551
        8.466095142767500        0.003203284946978        0.000945467174280        0.010768257420605       -0.003203284946978       -0.000945467173808       -0.010768257420605
        8.587039359092751        0.003602298533780        0.000869341658915        0.011935139513367       -0.003602298533780       -0.000869341659231       -0.011935139513367
        8.707983575418000        0.003975962999281        0.000765039895350        0.012986497517658       -0.003975962999281       -0.000765039896075       -0.012986497517658
        8.828927791743251        0.004318286017385        0.000684965617515        0.013907876130041       -0.004318286017385       -0.000684965619927       -0.013907876130041
        8.949872008068500        0.004633400646300        0.000855083475627        0.014717726025007       -0.004633400646300       -0.000855083477665       -0.014717726025007
        9.070816224393750        0.004908497196526        0.001044364177820        0.015380365220339       -0.004908497196526       -0.001044364180735       -0.015380365220339
        9.191760440718999        0.005153231998234        0.001443681530021        0.015931439185338       -0.005153231998234       -0.001443681532328       -0.015931439185338
        9.312704657044250        0.005351646006940        0.001656401059557        0.016326541693763       -0.005351646006940       -0.001656401060859       -0.016326541693763
        9.433648873369501        0.005511958414799        0.001757419165748        0.016596367066383       -0.005511958414799       -0.001757419165126       -0.016596367066383
        9.554593089694750        0.005626079453359        0.001694690095554        0.016721554386249       -0.005626079453359       -0.001694690092784       -0.016721554386249
        9.675537306020001        0.005691660444014        0.001359362386114        0.016700584722281       -0.005691660444014       -0.001359362381860       -0.016700584722281
        9.796481522345250        0.005716165893811        0.001259798856863        0.016560469847779       -0.005716165893811       -0.001259798851887       -0.016560469847779
        9.917425738670500        0.005684076660427        0.000982499633946        0.016261152161732       -0.005684076660427       -0.000982499629001       -0.016261152161732
       10.038369954995749        0.005613356774096        0.001206376200424        0.015859204924374       -0.005613356774096       -0.001206376196727       -0.015859204924374
       10.159314171321000        0.005483488162340        0.001279296979554        0.015301094009651       -0.005483488162340       -0.001279296976420       -0.015301094009651
       10.280258387646251        0.005309747327005        0.001586258971961        0.014634621591519       -0.005309747327005       -0.001586258971153       -0.014634621591519
       10.401202603971500        0.005079444005169        0.001638531649253        0.013829204829530       -0.005079444005169       -0.001638531649078       -0.013829204829530
       10.522146820296751        0.004797089330298        0.001508752562797        0.012902083481125       -0.004797089330298       -0.001508752562290       -0.012902083481125
       10.643091036622000        0.004463634279551        0.001218348834468        0.011860304154649       -0.004463634279551       -0.001218348832659       -0.011860304154649
       10.764035252947250        0.004075586424007        0.000740453939080        0.010699007591150       -0.004075586424007       -0.000740453934757       -0.010699007591150
       10.884979469272501        0.003640975100256        0.000429699769248        0.009443551233524       -0.003640975100256       -0.000429699763694       -0.009443551233524
       11.005923685597750        0.003157630705480        0.000184710973457        0.008092052085019       -0.003157630705480       -0.000184710968235       -0.008092052085019
       11.126867901923001        0.002630104728174        0.000218610470181        0.006659831117959       -0.002630104728174       -0.000218610465507       -0.006659831117959
       11.247812118248250        0.002063511121664        0.000304300589933        0.005162986256299       -0.002063511121664       -0.000304300586741       -0.005162986256299
       11.368756334573501        0.001454109684130        0.000382910526652        0.003595048647201       -0.001454109684130       -0.000382910524671       -0.003595048647201
       11.489700550898750        0.000815775988535        0.000271064142359        0.001992967103477       -0.000815775988535       -0.000271064142447       -0.001992967103477
       11.610644767224001        0.000140921590085       -0.000076004464386        0.000340201420417       -0.000140921590085        0.000076004461738       -0.000340201420417
       11.731588983549251       -0.000549583284118       -0.000580996004591       -0.001311070924933        0.000549583284118        0.000580995999896        0.001311070924933
       11.852533199874500       -0.001262779229299       -0.001150233367207       -0.002976881912973        0.001262779229299        0.001150233363112        0.002976881912973
       11.973477416199751       -0.001974964309269       -0.001535448285902       -0.004600882721478        0.001974964309269        0.001535448284190        0.004600882721478
       12.094421632525000       -0.002691306911108       -0.001777937141171       -0.006195832002741        0.002691306911108        0.001777937143649        0.006195832002741
       12.215365848850251       -0.003387885621238       -0.001715591029638       -0.007707743170500        0.003387885621238        0.001715591033955        0.007707743170500
       12.336310065175500       -0.004069110051394       -0.001675676320825       -0.009148897978836        0.004069110051394        0.001675676325687        0.009148897978836
       12.457254281500751       -0.004715854569771       -0.001628250545275       -0.010478783529740        0.004715854569771        0.001628250547338        0.010478783529740
       12.578198497826001       -0.005325019215049       -0.001818055883182       -0.011694046845019        0.005325019215049        0.001818055881336        0.011694046845019
       12.699142714151250       -0.005887908031284       -0.002263989287541       -0.012779445358256        0.005887908031284        0.002263989281086        0.012779445358256
       12.820086930476501       -0.006383445124879       -0.002680877090237       -0.013693987847327        0.006383445124879        0.002680877077352        0.013693987847327
       12.941031146801750       -0.006820986420346       -0.003274639982486       -0.014463214816327        0.006820986420346        0.003274639964935        0.014463214816327
       13.061975363127001       -0.007160868220753       -0.003342615092276       -0.015008866653155        0.007160868220753        0.003342615071100        0.015008866653155
       13.182919579452250       -0.007430916850060       -0.003473469979423       -0.015396206357796        0.007430916850060        0.003473469958772        0.015396206357796
       13.303863795777501       -0.007587846682264       -0.003076912938099       -0.015541981522619        0.007587846682264        0.003076912921728        0.015541981522619
       13.424808012102751       -0.007664212914348       -0.002869235234312       -0.015520375422695        0.007664212914348        0.002869235224650        0.015520375422695
