#     time (fs)  |  E_x (eV/ang)  | E_y (eV/ang) | E_z (eV/ang)
     0.00000000     0.00000000     0.00000000     0.64561651
     0.00241888     0.01928361     0.01928361     0.64547246
     0.00483777     0.03855862     0.03855862     0.64504037
     0.00725665     0.05781642     0.05781642     0.64432042
     0.00967554     0.07704842     0.07704842     0.64331295
     0.01209442     0.09624604     0.09624604     0.64201841
     0.01451331     0.11540070     0.11540070     0.64043736
     0.01693219     0.13450387     0.13450387     0.63857052
     0.01935107     0.15354702     0.15354702     0.63641871
     0.02176996     0.17252165     0.17252165     0.63398291
     0.02418884     0.19141929     0.19141929     0.63126419
     0.02660773     0.21023151     0.21023151     0.62826377
     0.02902661     0.22894991     0.22894991     0.62498299
     0.03144550     0.24756614     0.24756614     0.62142331
     0.03386438     0.26607190     0.26607190     0.61758632
     0.03628326     0.28445893     0.28445893     0.61347373
     0.03870215     0.30271901     0.30271901     0.60908738
     0.04112103     0.32084401     0.32084401     0.60442923
     0.04353992     0.33882583     0.33882583     0.59950135
     0.04595880     0.35665645     0.35665645     0.59430595
     0.04837769     0.37432791     0.37432791     0.58884533
     0.05079657     0.39183233     0.39183233     0.58312195
     0.05321546     0.40916190     0.40916190     0.57713834
     0.05563434     0.42630887     0.42630887     0.57089719
     0.05805322     0.44326561     0.44326561     0.56440128
     0.06047211     0.46002454     0.46002454     0.55765350
     0.06289099     0.47657818     0.47657818     0.55065687
     0.06530988     0.49291915     0.49291915     0.54341452
     0.06772876     0.50904016     0.50904016     0.53592966
     0.07014765     0.52493401     0.52493401     0.52820564
     0.07256653     0.54059361     0.54059361     0.52024592
     0.07498541     0.55601197     0.55601197     0.51205403
     0.07740430     0.57118220     0.57118220     0.50363365
     0.07982318     0.58609755     0.58609755     0.49498851
     0.08224207     0.60075136     0.60075136     0.48612249
     0.08466095     0.61513707     0.61513707     0.47703953
     0.08707984     0.62924829     0.62924829     0.46774370
     0.08949872     0.64307870     0.64307870     0.45823914
     0.09191760     0.65662214     0.65662214     0.44853009
     0.09433649     0.66987257     0.66987257     0.43862088
     0.09675537     0.68282406     0.68282406     0.42851594
     0.09917426     0.69547084     0.69547084     0.41821977
     0.10159314     0.70780727     0.70780727     0.40773698
     0.10401203     0.71982785     0.71982785     0.39707223
     0.10643091     0.73152720     0.73152720     0.38623029
     0.10884979     0.74290010     0.74290010     0.37521599
     0.11126868     0.75394149     0.75394149     0.36403425
     0.11368756     0.76464643     0.76464643     0.35269007
     0.11610645     0.77501015     0.77501015     0.34118849
     0.11852533     0.78502803     0.78502803     0.32953467
     0.12094422     0.79469558     0.79469558     0.31773378
     0.12336310     0.80400851     0.80400851     0.30579111
     0.12578198     0.81296264     0.81296264     0.29371198
     0.12820087     0.82155399     0.82155399     0.28150178
     0.13061975     0.82977873     0.82977873     0.26916596
     0.13303864     0.83763317     0.83763317     0.25671003
     0.13545752     0.84511382     0.84511382     0.24413954
     0.13787641     0.85221735     0.85221735     0.23146010
     0.14029529     0.85894057     0.85894057     0.21867737
     0.14271418     0.86528049     0.86528049     0.20579706
     0.14513306     0.87123428     0.87123428     0.19282492
     0.14755194     0.87679928     0.87679928     0.17976672
     0.14997083     0.88197301     0.88197301     0.16662831
     0.15238971     0.88675316     0.88675316     0.15341553
     0.15480860     0.89113760     0.89113760     0.14013430
     0.15722748     0.89512437     0.89512437     0.12679053
     0.15964637     0.89871169     0.89871169     0.11339018
     0.16206525     0.90189797     0.90189797     0.09993923
     0.16448413     0.90468177     0.90468177     0.08644368
     0.16690302     0.90706186     0.90706186     0.07290955
     0.16932190     0.90903717     0.90903717     0.05934289
     0.17174079     0.91060682     0.91060682     0.04574975
     0.17415967     0.91177012     0.91177012     0.03213620
     0.17657856     0.91252655     0.91252655     0.01850830
     0.17899744     0.91287575     0.91287575     0.00487214
     0.18141632     0.91281759     0.91281759    -0.00876619
     0.18383521     0.91235209     0.91235209    -0.02240061
     0.18625409     0.91147945     0.91147945    -0.03602503
     0.18867298     0.91020006     0.91020006    -0.04963338
     0.19109186     0.90851450     0.90851450    -0.06321958
     0.19351075     0.90642351     0.90642351    -0.07677756
     0.19592963     0.90392803     0.90392803    -0.09030129
     0.19834851     0.90102918     0.90102918    -0.10378471
     0.20076740     0.89772824     0.89772824    -0.11722183
     0.20318628     0.89402669     0.89402669    -0.13060663
     0.20560517     0.88992618     0.88992618    -0.14393315
     0.20802405     0.88542855     0.88542855    -0.15719544
     0.21044294     0.88053579     0.88053579    -0.17038759
     0.21286182     0.87525010     0.87525010    -0.18350369
     0.21528071     0.86957382     0.86957382    -0.19653791
     0.21769959     0.86350950     0.86350950    -0.20948443
     0.22011847     0.85705984     0.85705984    -0.22233746
     0.22253736     0.85022772     0.85022772    -0.23509127
     0.22495624     0.84301618     0.84301618    -0.24774018
     0.22737513     0.83542845     0.83542845    -0.26027853
     0.22979401     0.82746791     0.82746791    -0.27270073
     0.23221290     0.81913812     0.81913812    -0.28500124
     0.23463178     0.81044278     0.81044278    -0.29717457
     0.23705066     0.80138579     0.80138579    -0.30921528
     0.23946955     0.79197117     0.79197117    -0.32111801
     0.24188843     0.78220314     0.78220314    -0.33287744
     0.24430732     0.77208606     0.77208606    -0.34448832
     0.24672620     0.76162443     0.76162443    -0.35594547
     0.24914509     0.75082293     0.75082293    -0.36724379
     0.25156397     0.73968637     0.73968637    -0.37837822
     0.25398285     0.72821973     0.72821973    -0.38934380
     0.25640174     0.71642812     0.71642812    -0.40013564
     0.25882062     0.70431681     0.70431681    -0.41074892
     0.26123951     0.69189119     0.69189119    -0.42117890
     0.26365839     0.67915682     0.67915682    -0.43142093
     0.26607728     0.66611938     0.66611938    -0.44147044
     0.26849616     0.65278468     0.65278468    -0.45132294
     0.27091504     0.63915868     0.63915868    -0.46097404
     0.27333393     0.62524745     0.62524745    -0.47041943
     0.27575281     0.61105721     0.61105721    -0.47965490
     0.27817170     0.59659429     0.59659429    -0.48867632
     0.28059058     0.58186513     0.58186513    -0.49747968
     0.28300947     0.56687632     0.56687632    -0.50606103
     0.28542835     0.55163454     0.55163454    -0.51441655
     0.28784723     0.53614659     0.53614659    -0.52254251
     0.29026612     0.52041939     0.52041939    -0.53043529
     0.29268500     0.50445996     0.50445996    -0.53809137
     0.29510389     0.48827540     0.48827540    -0.54550732
     0.29752277     0.47187296     0.47187296    -0.55267984
     0.29994166     0.45525994     0.45525994    -0.55960573
     0.30236054     0.43844376     0.43844376    -0.56628189
     0.30477943     0.42143193     0.42143193    -0.57270535
     0.30719831     0.40423204     0.40423204    -0.57887324
     0.30961719     0.38685175     0.38685175    -0.58478281
     0.31203608     0.36929884     0.36929884    -0.59043142
     0.31445496     0.35158112     0.35158112    -0.59581656
     0.31687385     0.33370652     0.33370652    -0.60093581
     0.31929273     0.31568299     0.31568299    -0.60578689
     0.32171162     0.29751860     0.29751860    -0.61036764
     0.32413050     0.27922143     0.27922143    -0.61467601
     0.32654938     0.26079967     0.26079967    -0.61871009
     0.32896827     0.24226152     0.24226152    -0.62246807
     0.33138715     0.22361526     0.22361526    -0.62594827
     0.33380604     0.20486922     0.20486922    -0.62914914
     0.33622492     0.18603175     0.18603175    -0.63206926
     0.33864381     0.16711127     0.16711127    -0.63470732
     0.34106269     0.14811621     0.14811621    -0.63706213
     0.34348157     0.12905506     0.12905506    -0.63913266
     0.34590046     0.10993631     0.10993631    -0.64091798
     0.34831934     0.09076851     0.09076851    -0.64241729
     0.35073823     0.07156020     0.07156020    -0.64362992
     0.35315711     0.05231996     0.05231996    -0.64455533
     0.35557600     0.03305637     0.03305637    -0.64519311
     0.35799488     0.01377802     0.01377802    -0.64554298
     0.36041376    -0.00550647    -0.00550647    -0.64560477
     0.36283265    -0.02478850    -0.02478850    -0.64537846
     0.36525153    -0.04405947    -0.04405947    -0.64486415
     0.36767042    -0.06331078    -0.06331078    -0.64406207
     0.37008930    -0.08253384    -0.08253384    -0.64297258
     0.37250819    -0.10172006    -0.10172006    -0.64159616
     0.37492707    -0.12086090    -0.12086090    -0.63993343
     0.37734595    -0.13994780    -0.13994780    -0.63798513
     0.37976484    -0.15897224    -0.15897224    -0.63575214
     0.38218372    -0.17792575    -0.17792575    -0.63323543
     0.38460261    -0.19679986    -0.19679986    -0.63043615
     0.38702149    -0.21558615    -0.21558615    -0.62735554
     0.38944038    -0.23427623    -0.23427623    -0.62399497
     0.39185926    -0.25286176    -0.25286176    -0.62035594
     0.39427815    -0.27133446    -0.27133446    -0.61644008
     0.39669703    -0.28968607    -0.28968607    -0.61224913
     0.39911591    -0.30790841    -0.30790841    -0.60778497
     0.40153480    -0.32599335    -0.32599335    -0.60304958
     0.40395368    -0.34393282    -0.34393282    -0.59804509
     0.40637257    -0.36171880    -0.36171880    -0.59277371
     0.40879145    -0.37934337    -0.37934337    -0.58723781
     0.41121034    -0.39679865    -0.39679865    -0.58143986
     0.41362922    -0.41407687    -0.41407687    -0.57538244
     0.41604810    -0.43117030    -0.43117030    -0.56906826
     0.41846699    -0.44807133    -0.44807133    -0.56250013
     0.42088587    -0.46477240    -0.46477240    -0.55568099
     0.42330476    -0.48126607    -0.48126607    -0.54861387
     0.42572364    -0.49754497    -0.49754497    -0.54130194
     0.42814253    -0.51360185    -0.51360185    -0.53374845
     0.43056141    -0.52942953    -0.52942953    -0.52595678
     0.43298029    -0.54502095    -0.54502095    -0.51793040
     0.43539918    -0.56036916    -0.56036916    -0.50967289
     0.43781806    -0.57546731    -0.57546731    -0.50118794
     0.44023695    -0.59030865    -0.59030865    -0.49247934
     0.44265583    -0.60488657    -0.60488657    -0.48355097
     0.44507472    -0.61919456    -0.61919456    -0.47440681
     0.44749360    -0.63322623    -0.63322623    -0.46505095
     0.44991248    -0.64697533    -0.64697533    -0.45548756
     0.45233137    -0.66043571    -0.66043571    -0.44572092
     0.45475025    -0.67360138    -0.67360138    -0.43575537
     0.45716914    -0.68646645    -0.68646645    -0.42559536
     0.45958802    -0.69902519    -0.69902519    -0.41524543
     0.46200691    -0.71127199    -0.71127199    -0.40471020
     0.46442579    -0.72320138    -0.72320138    -0.39399437
     0.46684468    -0.73480805    -0.73480805    -0.38310272
     0.46926356    -0.74608681    -0.74608681    -0.37204011
     0.47168244    -0.75703262    -0.75703262    -0.36081148
     0.47410133    -0.76764062    -0.76764062    -0.34942183
     0.47652021    -0.77790605    -0.77790605    -0.33787626
     0.47893910    -0.78782435    -0.78782435    -0.32617991
     0.48135798    -0.79739108    -0.79739108    -0.31433800
     0.48377687    -0.80660197    -0.80660197    -0.30235582
     0.48619575    -0.81545292    -0.81545292    -0.29023871
     0.48861463    -0.82393998    -0.82393998    -0.27799208
     0.49103352    -0.83205935    -0.83205935    -0.26562140
     0.49345240    -0.83980741    -0.83980741    -0.25313219
     0.49587129    -0.84718072    -0.84718072    -0.24053002
     0.49829017    -0.85417597    -0.85417597    -0.22782051
     0.50070906    -0.86079004    -0.86079004    -0.21500934
     0.50312794    -0.86701999    -0.86701999    -0.20210222
     0.50554682    -0.87286303    -0.87286303    -0.18910491
     0.50796571    -0.87831656    -0.87831656    -0.17602321
     0.51038459    -0.88337814    -0.88337814    -0.16286296
     0.51280348    -0.88804551    -0.88804551    -0.14963004
     0.51522236    -0.89231660    -0.89231660    -0.13633034
     0.51764125    -0.89618948    -0.89618948    -0.12296981
     0.52006013    -0.89966245    -0.89966245    -0.10955440
     0.52247901    -0.90273394    -0.90273394    -0.09609010
     0.52489790    -0.90540259    -0.90540259    -0.08258292
     0.52731678    -0.90766720    -0.90766720    -0.06903889
     0.52973567    -0.90952677    -0.90952677    -0.05546405
     0.53215455    -0.91098046    -0.91098046    -0.04186446
     0.53457344    -0.91202763    -0.91202763    -0.02824619
     0.53699232    -0.91266780    -0.91266780    -0.01461532
     0.53941120    -0.91290070    -0.91290070    -0.00097792
     0.54183009    -0.91272622    -0.91272622     0.01265992
     0.54424897    -0.91214444    -0.91214444     0.02629210
     0.54666786    -0.91115561    -0.91115561     0.03991256
     0.54908674    -0.90976018    -0.90976018     0.05351520
     0.55150563    -0.90795877    -0.90795877     0.06709396
     0.55392451    -0.90575218    -0.90575218     0.08064278
     0.55634340    -0.90314141    -0.90314141     0.09415561
     0.55876228    -0.90012760    -0.90012760     0.10762643
     0.56118116    -0.89671212    -0.89671212     0.12104922
     0.56360005    -0.89289648    -0.89289648     0.13441799
     0.56601893    -0.88868239    -0.88868239     0.14772677
     0.56843782    -0.88407172    -0.88407172     0.16096964
     0.57085670    -0.87906654    -0.87906654     0.17414067
     0.57327559    -0.87366907    -0.87366907     0.18723399
     0.57569447    -0.86788173    -0.86788173     0.20024376
     0.57811335    -0.86170710    -0.86170710     0.21316416
     0.58053224    -0.85514793    -0.85514793     0.22598945
     0.58295112    -0.84820716    -0.84820716     0.23871389
     0.58537001    -0.84088787    -0.84088787     0.25133180
     0.58778889    -0.83319334    -0.83319334     0.26383755
     0.59020778    -0.82512699    -0.82512699     0.27622557
     0.59262666    -0.81669244    -0.81669244     0.28849032
     0.59504554    -0.80789343    -0.80789343     0.30062634
     0.59746443    -0.79873391    -0.79873391     0.31262820
     0.59988331    -0.78921795    -0.78921795     0.32449055
     0.60230220    -0.77934980    -0.77934980     0.33620809
     0.60472108    -0.76913387    -0.76913387     0.34777561
     0.60713997    -0.75857471    -0.75857471     0.35918793
     0.60955885    -0.74767704    -0.74767704     0.37043996
     0.61197773    -0.73644572    -0.73644572     0.38152668
     0.61439662    -0.72488577    -0.72488577     0.39244315
     0.61681550    -0.71300233    -0.71300233     0.40318449
     0.61923439    -0.70080071    -0.70080071     0.41374591
     0.62165327    -0.68828637    -0.68828637     0.42412270
     0.62407216    -0.67546488    -0.67546488     0.43431022
     0.62649104    -0.66234196    -0.66234196     0.44430393
     0.62890992    -0.64892347    -0.64892347     0.45409937
     0.63132881    -0.63521540    -0.63521540     0.46369217
     0.63374769    -0.62122387    -0.62122387     0.47307805
     0.63616658    -0.60695512    -0.60695512     0.48225282
     0.63858546    -0.59241551    -0.59241551     0.49121238
     0.64100435    -0.57761154    -0.57761154     0.49995274
     0.64342323    -0.56254981    -0.56254981     0.50847000
     0.64584212    -0.54723704    -0.54723704     0.51676035
     0.64826100    -0.53168007    -0.53168007     0.52482010
     0.65067988    -0.51588584    -0.51588584     0.53264564
     0.65309877    -0.49986139    -0.49986139     0.54023350
     0.65551765    -0.48361389    -0.48361389     0.54758028
     0.65793654    -0.46715057    -0.46715057     0.55468270
     0.66035542    -0.45047878    -0.45047878     0.56153759
     0.66277431    -0.43360597    -0.43360597     0.56814190
     0.66519319    -0.41653966    -0.41653966     0.57449267
     0.66761207    -0.39928747    -0.39928747     0.58058708
     0.67003096    -0.38185710    -0.38185710     0.58642240
     0.67244984    -0.36425633    -0.36425633     0.59199603
     0.67486873    -0.34649301    -0.34649301     0.59730549
     0.67728761    -0.32857506    -0.32857506     0.60234840
     0.67970650    -0.31051049    -0.31051049     0.60712250
     0.68212538    -0.29230736    -0.29230736     0.61162569
     0.68454426    -0.27397378    -0.27397378     0.61585593
     0.68696315    -0.25551794    -0.25551794     0.61981135
     0.68938203    -0.23694808    -0.23694808     0.62349018
     0.69180092    -0.21827248    -0.21827248     0.62689078
     0.69421980    -0.19949948    -0.19949948     0.63001163
     0.69663869    -0.18063744    -0.18063744     0.63285133
     0.69905757    -0.16169481    -0.16169481     0.63540863
     0.70147645    -0.14268001    -0.14268001     0.63768238
     0.70389534    -0.12360154    -0.12360154     0.63967156
     0.70631422    -0.10446792    -0.10446792     0.64137529
     0.70873311    -0.08528768    -0.08528768     0.64279280
     0.71115199    -0.06606937    -0.06606937     0.64392347
     0.71357088    -0.04682159    -0.04682159     0.64476680
     0.71598976    -0.02755291    -0.02755291     0.64532239
     0.71840864    -0.00827194    -0.00827194     0.64559001
     0.72082753     0.01101273     0.01101273     0.64556953
     0.72324641     0.03029248     0.03029248     0.64526098
     0.72566530     0.04955872     0.04955872     0.64466447
     0.72808418     0.06880283     0.06880283     0.64378028
     0.73050307     0.08801625     0.08801625     0.64260881
     0.73292195     0.10719039     0.10719039     0.64115057
     0.73534084     0.12631669     0.12631669     0.63940622
     0.73775972     0.14538663     0.14538663     0.63737654
     0.74017860     0.16439168     0.16439168     0.63506243
     0.74259749     0.18332338     0.18332338     0.63246492
     0.74501637     0.20217327     0.20217327     0.62958517
     0.74743526     0.22093294     0.22093294     0.62642448
     0.74985414     0.23959402     0.23959402     0.62298424
     0.75227303     0.25814818     0.25814818     0.61926600
     0.75469191     0.27658714     0.27658714     0.61527141
     0.75711079     0.29490268     0.29490268     0.61100225
     0.75952968     0.31308661     0.31308661     0.60646044
     0.76194856     0.33113083     0.33113083     0.60164799
     0.76436745     0.34902729     0.34902729     0.59656706
     0.76678633     0.36676799     0.36676799     0.59121991
     0.76920522     0.38434502     0.38434502     0.58560893
     0.77162410     0.40175054     0.40175054     0.57973663
     0.77404298     0.41897677     0.41897677     0.57360561
     0.77646187     0.43601604     0.43601604     0.56721863
     0.77888075     0.45286074     0.45286074     0.56057852
     0.78129964     0.46950335     0.46950335     0.55368826
     0.78371852     0.48593644     0.48593644     0.54655091
     0.78613741     0.50215269     0.50215269     0.53916967
