#           time (fs)       | force (atom_1) (H/b)   |  force (atom_2) (H/b)  |           ...          |  force (atom_N) (H/b)  |
        0.000000000000000       -0.000000000000000       -0.000000000000000       -0.001977038000788       -0.000000000000000       -0.000000000000000        0.001977038000788
        0.120944216325250       -0.000000091269552       -0.000001361779959        0.000878401421095        0.000000091269552        0.000001361780137       -0.000878401421095
        0.241888432650500       -0.000000758373257       -0.000019798907324        0.003668810592702        0.000000758373257        0.000019798907202       -0.003668810592702
        0.362832648975750       -0.000001957826270       -0.000061308345635        0.006347503390443        0.000001957826270        0.000061308345346       -0.006347503390443
        0.483776865301000       -0.000003647069407       -0.000115949472580        0.008914085198344        0.000003647069407        0.000115949472673       -0.008914085198344
        0.604721081626250       -0.000005762840817       -0.000164572686866        0.011325478196663        0.000005762840817        0.000164572688525       -0.011325478196663
        0.725665297951500       -0.000008256190942       -0.000221670106599        0.013588160038548        0.000008256190942        0.000221670102881       -0.013588160038548
        0.846609514276750       -0.000011060527104       -0.000319391230157        0.015677916733633        0.000011060527104        0.000319391235148       -0.015677916733633
        0.967553730602000       -0.000014117255035       -0.000442075658186        0.017590465934242        0.000014117255035        0.000442075656597       -0.017590465934242
        1.088497946927250       -0.000017367674730       -0.000540956420167        0.019321613564623        0.000017367674730        0.000540956415294       -0.019321613564623
        1.209442163252500       -0.000020744330729       -0.000623720916869        0.020858574562484        0.000020744330729        0.000623720927508       -0.020858574562484
        1.330386379577750       -0.000024183579805       -0.000741456352042        0.022195333630247        0.000024183579805        0.000741456340690       -0.022195333630247
        1.451330595903000       -0.000027643183346       -0.000876461067236        0.023344852162319        0.000027643183346        0.000876461071876       -0.023344852162319
        1.572274812228250       -0.000031035406227       -0.000954146088848        0.024279839340643        0.000031035406227        0.000954146094800       -0.024279839340643
        1.693219028553500       -0.000034336691246       -0.000992715170699        0.025026598301300        0.000034336691246        0.000992715156702       -0.025026598301300
        1.814163244878750       -0.000037475079587       -0.001093270254890        0.025571171462244        0.000037475079587        0.001093270270220       -0.025571171462244
        1.935107461204000       -0.000040373659949       -0.001253476074870        0.025899416111733        0.000040373659949        0.001253476067298       -0.025899416111733
        2.056051677529250       -0.000043049292868       -0.001350266320635        0.026056908875611        0.000043049292868        0.001350266316087       -0.026056908875611
        2.176995893854500       -0.000045363110711       -0.001351137259000        0.025990151300390        0.000045363110711        0.001351137273216       -0.025990151300390
        2.297940110179750       -0.000047328002863       -0.001385348880864        0.025739029455091        0.000047328002863        0.001385348865033       -0.025739029455091
        2.418884326505000       -0.000048860852870       -0.001502682929394        0.025286124025248        0.000048860852870        0.001502682937939       -0.025286124025248
        2.539828542830250       -0.000049877518823       -0.001573643116772        0.024616904525039        0.000049877518823        0.001573643118729       -0.024616904525039
        2.660772759155500       -0.000050400689836       -0.001528709856158        0.023770064903861        0.000050400689836        0.001528709847014       -0.023770064903861
        2.781716975480750       -0.000050302601656       -0.001485223336755        0.022710107803100        0.000050302601656        0.001485223345619       -0.022710107803100
        2.902661191806000       -0.000049535300388       -0.001522765781237        0.021442297030276        0.000049535300388        0.001522765777035       -0.021442297030276
        3.023605408131250       -0.000048123373750       -0.001519925711092        0.020001675706921        0.000048123373750        0.001519925711041       -0.020001675706921
        3.144549624456500       -0.000045908742497       -0.001372512302369        0.018345396935665        0.000045908742497        0.001372512302673       -0.018345396935665
        3.265493840781750       -0.000042953180083       -0.001205508104380        0.016522081987665        0.000042953180083        0.001205508105425       -0.016522081987665
        3.386438057107000       -0.000039170534283       -0.001145575326323        0.014519044434043        0.000039170534283        0.001145575322013       -0.014519044434043
        3.507382273432250       -0.000034479847784       -0.001085775483432        0.012327779343447        0.000034479847784        0.001085775484285       -0.012327779343447
        3.628326489757500       -0.000029003796412       -0.000881344174431        0.010011810844236        0.000029003796412        0.000881344180421       -0.010011810844236
        3.749270706082750       -0.000022551993134       -0.000601705825538        0.007522253755294        0.000022551993134        0.000601705812124       -0.007522253755294
        3.870214922408000       -0.000015215445002       -0.000399806199810        0.004907876849282        0.000015215445002        0.000399806213766       -0.004907876849282
        3.991159138733250       -0.000007009741542       -0.000217125705355        0.002188138643628        0.000007009741542        0.000217125700611       -0.002188138643628
        4.112103355058500        0.000002109516690        0.000104215420883       -0.000637700625965       -0.000002109516690       -0.000104215431422        0.000637700625965
        4.233047571383750        0.000011964483883        0.000512785496753       -0.003504870135088       -0.000011964483883       -0.000512785474500        0.003504870135088
        4.353991787709000        0.000022556533026        0.000838016298481       -0.006407100722490       -0.000022556533026       -0.000838016324158        0.006407100722490
        4.474936004034250        0.000033806787962        0.001095647834382       -0.009316746930187       -0.000033806787962       -0.001095647823438        0.009316746930187
        4.595880220359500        0.000045410238109        0.001447661577863       -0.012148562437511       -0.000045410238109       -0.001447661566620        0.012148562437511
        4.716824436684750        0.000057416402510        0.001906363599891       -0.014919750626841       -0.000057416402510       -0.001906363628508        0.014919750626841
        4.837768653010000        0.000069514135632        0.002301169054696       -0.017554481437002       -0.000069514135632       -0.002301169023661        0.017554481437002
        4.958712869335250        0.000081537399594        0.002603568733878       -0.020021301322883       -0.000081537399594       -0.002603568750036        0.020021301322883
        5.079657085660500        0.000093361134317        0.002971602173569       -0.022302386850990       -0.000093361134317       -0.002971602181497        0.022302386850990
        5.200601301985750        0.000104511196243        0.003426814899224       -0.024301114733897       -0.000104511196243       -0.003426814871457        0.024301114733897
        5.321545518311000        0.000114895838119        0.003793895962023       -0.026018028876043       -0.000114895838119       -0.003793895996319        0.026018028876043
        5.442489734636251        0.000124203008648        0.003995188217965       -0.027405544476252       -0.000124203008648       -0.003995188197252        0.027405544476252
        5.563433950961501        0.000132150932398        0.004191978640983       -0.028427834003601       -0.000132150932398       -0.004191978637246        0.028427834003601
        5.684378167286750        0.000138687619006        0.004485849810076       -0.029101222745934       -0.000138687619006       -0.004485849835848        0.029101222745934
        5.805322383612000        0.000143476496770        0.004710233228343       -0.029382515405296       -0.000143476496770       -0.004710233194405        0.029382515405296
        5.926266599937250        0.000146308933079        0.004726702008124       -0.029258368369735       -0.000146308933079       -0.004726702031753        0.029258368369735
        6.047210816262500        0.000147185119529        0.004671587704523       -0.028757558992253       -0.000147185119529       -0.004671587703793        0.028757558992253
        6.168155032587750        0.000145755264858        0.004685550578749       -0.027839404180239       -0.000145755264858       -0.004685550555888        0.027839404180239
        6.289099248913001        0.000142307143310        0.004660553156172       -0.026585752339189       -0.000142307143310       -0.004660553190100        0.026585752339189
        6.410043465238251        0.000136783610590        0.004429969943428       -0.025008141118476       -0.000136783610590       -0.004429969917003        0.025008141118476
        6.530987681563500        0.000129109073391        0.004100950885501       -0.023113538917864       -0.000129109073391       -0.004100950890581        0.023113538917864
        6.651931897888750        0.000119624073130        0.003872121471095       -0.020980975787789       -0.000119624073130       -0.003872121489432        0.020980975787789
        6.772876114214000        0.000108105889418        0.003632958151342       -0.018585999652636       -0.000108105889418       -0.003632958121112        0.018585999652636
        6.893820330539250        0.000094986596658        0.003171143757258       -0.016016091652300       -0.000094986596658       -0.003171143779997        0.016016091652300
        7.014764546864500        0.000080519032153        0.002574730637668       -0.013322136223325       -0.000080519032153       -0.002574730630405        0.013322136223325
        7.135708763189751        0.000064693980664        0.002105348996183       -0.010508441071553       -0.000064693980664       -0.002105348984200        0.010508441071553
        7.256652979515001        0.000048070842296        0.001735609738204       -0.007669500106441       -0.000048070842296       -0.001735609759500        0.007669500106441
        7.377597195840250        0.000030735305561        0.001178097869554       -0.004818799001416       -0.000030735305561       -0.001178097853047        0.004818799001416
        7.498541412165500        0.000012752938187        0.000442707075004       -0.001965735692673       -0.000012752938187       -0.000442707079767        0.001965735692673
        7.619485628490750       -0.000005320798715       -0.000136927051702        0.000806670622496        0.000005320798715        0.000136927048773       -0.000806670622496
        7.740429844816000       -0.000023872526141       -0.000539867014830        0.003561256526171        0.000023872526141        0.000539867018657       -0.003561256526171
        7.861374061141250       -0.000042135688863       -0.001082153981357        0.006187490114956        0.000042135688863        0.001082153987345       -0.006187490114956
        7.982318277466501       -0.000059905069265       -0.001836699502137        0.008662691691934        0.000059905069265        0.001836699496147       -0.008662691691934
        8.103262493791750       -0.000077446589729       -0.002448686083268        0.011032481396887        0.000077446589729        0.002448686080370       -0.011032481396887
        8.224206710117000       -0.000094102541426       -0.002764755809730        0.013209976173597        0.000094102541426        0.002764755825600       -0.013209976173597
        8.345150926442249       -0.000110033671111       -0.003173269905955        0.015226345428612        0.000110033671111        0.003173269881410       -0.015226345428612
        8.466095142767500       -0.000125055254074       -0.003861843310433        0.017063674160047        0.000125055254074        0.003861843330459       -0.017063674160047
        8.587039359092751       -0.000138805955938       -0.004420330063542        0.018681081682895        0.000138805955938        0.004420330066069       -0.018681081682895
        8.707983575418000       -0.000152209853997       -0.004612402072509        0.020210384584919        0.000152209853997        0.004612402046709       -0.020210384584919
        8.828927791743251       -0.000164156055637       -0.004804917555722        0.021509640921766        0.000164156055637        0.004804917598023       -0.021509640921766
        8.949872008068500       -0.000174551657603       -0.005344786007184        0.022575812848388        0.000174551657603        0.005344785973788       -0.022575812848388
        9.070816224393750       -0.000184015664197       -0.005872372605964        0.023496787328330        0.000184015664197        0.005872372608781       -0.023496787328330
        9.191760440718999       -0.000191963447980       -0.005942085143053        0.024204171144275        0.000191963447980        0.005942085177459       -0.024204171144275
        9.312704657044250       -0.000198918221620       -0.005907680515638        0.024770842045195        0.000198918221620        0.005907680458915       -0.024770842045195
        9.433648873369501       -0.000203936273124       -0.006225520652991        0.025085619549017        0.000203936273124        0.006225520701707       -0.025085619549017
        9.554593089694750       -0.000206946877956       -0.006601856865906        0.025148745162317        0.000206946877956        0.006601856854577       -0.025148745162317
        9.675537306020001       -0.000209330208442       -0.006540453125765        0.025134655781880        0.000209330208442        0.006540453093235       -0.025134655781880
        9.796481522345250       -0.000209793904307       -0.006236144635446        0.024892460008590        0.000209793904307        0.006236144692993       -0.024892460008590
        9.917425738670500       -0.000208248841858       -0.006276781221358        0.024419448917431        0.000208248841858        0.006276781170505       -0.024419448917431
       10.038369954995749       -0.000205081318669       -0.006514028651303        0.023768205856120        0.000205081318669        0.006514028668812       -0.023768205856120
       10.159314171321000       -0.000200034033299       -0.006316157439617        0.022915247177787        0.000200034033299        0.006316157463095       -0.022915247177787
       10.280258387646251       -0.000194161189697       -0.005789225289794        0.021986779173335        0.000194161189697        0.005789225238380       -0.021986779173335
       10.401202603971500       -0.000185889899346       -0.005513600746870        0.020809269547425        0.000185889899346        0.005513600792741       -0.020809269547425
       10.522146820296751       -0.000175233275835       -0.005510440172436        0.019392697342120        0.000175233275835        0.005510440151833       -0.019392697342120
       10.643091036622000       -0.000163376124724       -0.005210010625193        0.017874968636501        0.000163376124724        0.005210010611507       -0.017874968636501
       10.764035252947250       -0.000149376863537       -0.004477881362367        0.016157925034534        0.000149376863537        0.004477881397491       -0.016157925034534
       10.884979469272501       -0.000133499639275       -0.003884397134833        0.014276927669346        0.000133499639275        0.003884397104732       -0.014276927669346
       11.005923685597750       -0.000115415739636       -0.003580028383241        0.012203255546477        0.000115415739636        0.003580028394504       -0.012203255546477
       11.126867901923001       -0.000095100737730       -0.003041127122866        0.009941484467451        0.000095100737730        0.003041127125948       -0.009941484467451
       11.247812118248250       -0.000073686075492       -0.002091822058829        0.007615662030524        0.000073686075492        0.002091822046902       -0.007615662030524
       11.368756334573501       -0.000050209106237       -0.001187481710281        0.005130453454315        0.000050209106237        0.001187481710882       -0.005130453454315
       11.489700550898750       -0.000024956788987       -0.000610949654744        0.002521201814305        0.000024956788987        0.000610949659630       -0.002521201814305
       11.610644767224001        0.000001169058049        0.000036830358677       -0.000116759042987       -0.000001169058049       -0.000036830358278        0.000116759042987
       11.731588983549251        0.000028640552385        0.001093837158547       -0.002827944388494       -0.000028640552385       -0.001093837166200        0.002827944388494
       11.852533199874500        0.000056745526396        0.002178632286784       -0.005539185059854       -0.000056745526396       -0.002178632269067        0.005539185059854
       11.973477416199751        0.000085821447760        0.002957457568733       -0.008281865162424       -0.000085821447760       -0.002957457588762        0.008281865162424
       12.094421632525000        0.000115565658984        0.003727959340489       -0.011024873441638       -0.000115565658984       -0.003727959338086        0.011024873441638
       12.215365848850251        0.000144676804180        0.004815803704693       -0.013644333066518       -0.000144676804180       -0.004815803689022        0.013644333066518
       12.336310065175500        0.000173373009632        0.005966314069845       -0.016163739140656       -0.000173373009632       -0.005966314103849        0.016163739140656
       12.457254281500751        0.000200825057182        0.006748617897602       -0.018509144426802       -0.000200825057182       -0.006748617863186        0.018509144426802
       12.578198497826001        0.000226440966552        0.007339804909150       -0.020631748784464       -0.000226440966552       -0.007339804918596        0.020631748784464
       12.699142714151250        0.000250341114668        0.008171643652907       -0.022549355582616       -0.000250341114668       -0.008171643673096        0.022549355582616
       12.820086930476501        0.000271595350472        0.009089364574219       -0.024185649410317       -0.000271595350472       -0.009089364534763        0.024185649410317
       12.941031146801750        0.000290153074209        0.009660688228715       -0.025545430751383       -0.000290153074209       -0.009660688269205        0.025545430751383
       13.061975363127001        0.000305476854201        0.009934021337326       -0.026591144531434       -0.000305476854201       -0.009934021321523        0.026591144531434
       13.182919579452250        0.000316303183282        0.010297719886576       -0.027224634161132       -0.000316303183282       -0.010297719868987        0.027224634161132
       13.303863795777501        0.000323172740809        0.010754079504712       -0.027505859962336       -0.000323172740809       -0.010754079546829        0.027505859962336
       13.424808012102751        0.000325659027167        0.010856254052728       -0.027410882245135       -0.000325659027167       -0.010856254009121        0.027410882245135
