#           time (fs)    |     mu_x (e.angstrom)   |     mu_y (e.angstrom)   |     mu_z (e.angstrom)   |
        0.000000000000000       -0.000000000000000       -0.000000000000000        0.000000000000000
        0.002418884326505       -0.000000000189915       -0.000000005990651        0.000090933564160
        0.004837768653010       -0.000000000759613       -0.000000023956893        0.000181835176920
        0.007256652979515       -0.000000001699644       -0.000000053607016        0.000271288001562
        0.009675537306020       -0.000000003013056       -0.000000095026592        0.000360707625908
        0.012094421632525       -0.000000004669048       -0.000000147259039        0.000447231518655
        0.014513305959030       -0.000000006685958       -0.000000210863589        0.000533719756741
        0.016932190285535       -0.000000009000234       -0.000000283859272        0.000615909944471
        0.019351074612040       -0.000000011657077       -0.000000367644064        0.000698060908441
        0.021769958938545       -0.000000014549793       -0.000000458884805        0.000774578777000
        0.024188843265050       -0.000000017761113       -0.000000560154646        0.000851052880757
        0.026607727591555       -0.000000021132161       -0.000000666483187        0.000920647689274
        0.029026611918060       -0.000000024792607       -0.000000781915388        0.000990193411476
        0.031445496244565       -0.000000028524024       -0.000000899611311        0.001051722631604
        0.033864380571070       -0.000000032510842       -0.000001025334394        0.001113196898987
        0.036283264897575       -0.000000036469669       -0.000001150204313        0.001165644851608
        0.038702149224080       -0.000000040645649       -0.000001281890801        0.001218031714117
        0.041121033550585       -0.000000044687182       -0.000001409370927        0.001260526203540
        0.043539917877090       -0.000000048903980       -0.000001542342233        0.001302953500308
        0.045958802203595       -0.000000052875344       -0.000001667611091        0.001334780178213
        0.048377686530100       -0.000000056977121       -0.000001796952285        0.001366533925769
        0.050796570856605       -0.000000060721089       -0.000001915051176        0.001387148153572
        0.053215455183110       -0.000000064548386       -0.000002035733152        0.001407684424277
        0.055634339509615       -0.000000067907362       -0.000002141691740        0.001416720442701
        0.058053223836120       -0.000000071301122       -0.000002248698159        0.001425674541622
        0.060472108162625       -0.000000074121196       -0.000002337662460        0.001422951799284
        0.062890992489130       -0.000000076926854       -0.000002426118704        0.001420144590958
        0.065309876815635       -0.000000079061851       -0.000002493478679        0.001405671129161
        0.067728761142140       -0.000000081133398       -0.000002558779998        0.001391112411222
        0.070147645468645       -0.000000082448818       -0.000002600293919        0.001365085249002
        0.072566529795150       -0.000000083652747       -0.000002638229943        0.001338974116735
        0.074985414121655       -0.000000084029520       -0.000002650142789        0.001301776627950
        0.077404298448160       -0.000000084248573       -0.000002657015624        0.001264498821694
        0.079823182774665       -0.000000083586540       -0.000002636168803        0.001216695143665
        0.082242067101170       -0.000000082723162       -0.000002608902046        0.001168817418981
        0.084660951427675       -0.000000080944200       -0.000002552831952        0.001111143979240
        0.087079835754180       -0.000000078923630       -0.000002489068112        0.001053405586901
        0.089498720080685       -0.000000075974348       -0.000002396091198        0.000986759880183
        0.091917604407190       -0.000000072747271       -0.000002294275225        0.000920061288869
        0.094336488733695       -0.000000068601218       -0.000002163557533        0.000845488079878
        0.096755373060200       -0.000000064145904       -0.000002023004427        0.000770877117969
        0.099174257386705       -0.000000058805223       -0.000001854613824        0.000689552286017
        0.101593141713210       -0.000000053129115       -0.000001675558581        0.000608207919629
        0.104012026039715       -0.000000046625610       -0.000001470498273        0.000521420198304
        0.106430910366220       -0.000000039766306       -0.000001254126795        0.000434634199872
        0.108849794692725       -0.000000032161875       -0.000001014349063        0.000343765097909
        0.111268679019230       -0.000000024187465       -0.000000762808991        0.000252921892789
        0.113687563345735       -0.000000015573889       -0.000000491208472        0.000159424110766
        0.116106447672240       -0.000000006582652       -0.000000207599337        0.000065979117851
        0.118525331998745        0.000000002919276        0.000000092014398       -0.000028646201222
        0.120944216325250        0.000000012799852        0.000000403671941       -0.000123189395352
        0.123363100651755        0.000000023041846        0.000000726622374       -0.000217416225375
        0.125781984978260        0.000000033656697        0.000001061438013       -0.000311529501098
        0.128200869304765        0.000000044465137        0.000001402249655       -0.000403830933487
        0.130619753631270        0.000000055633890        0.000001754534967       -0.000495985711378
        0.133038637957775        0.000000066812577        0.000002107020354       -0.000584858021597
        0.135457522284280        0.000000078332423        0.000002470379401       -0.000673549397416
        0.137876406610785        0.000000089665899        0.000002827743731       -0.000757535801254
        0.140295290937290        0.000000101315026        0.000003195181282       -0.000841306364997
        0.142714175263795        0.000000112572398        0.000003550142950       -0.000919020093495
        0.145133059590300        0.000000124113922        0.000003914188513       -0.000996483059991
        0.147551943916805        0.000000135053121        0.000004259113471       -0.001066629392739
        0.149970828243310        0.000000146239456        0.000004611959008       -0.001136490682147
        0.152389712569815        0.000000156611860        0.000004939006542       -0.001197887595111
        0.154808596896320        0.000000167189439        0.000005272655406       -0.001258966518227
        0.157227481222825        0.000000176744773        0.000005573932683       -0.001310563623982
        0.159646365549330        0.000000186459043        0.000005880357081       -0.001361811849134
        0.162065249875835        0.000000194950467        0.000006148079597       -0.001402707334092
        0.164484134202340        0.000000203551057        0.000006419383642       -0.001443225839213
        0.166903018528845        0.000000210740347        0.000006646038528       -0.001472681133621
        0.169321902855350        0.000000217986319        0.000006874623810       -0.001501734878536
        0.171740787181855        0.000000223649031        0.000007053132860       -0.001519186830317
        0.174159671508360        0.000000229314109        0.000007231863339       -0.001536216919652
        0.176578555834865        0.000000233244643        0.000007355742559       -0.001541287281824
        0.178997440161370        0.000000237122315        0.000007478105565       -0.001545920427945
        0.181416324487875        0.000000239138759        0.000007541618059       -0.001538422510963
        0.183835208814380        0.000000241047160        0.000007601878172       -0.001530477648056
        0.186254093140885        0.000000240995830        0.000007600177263       -0.001510420032184
        0.188672977467390        0.000000240782293        0.000007593519935       -0.001489911976681
        0.191091861793895        0.000000238541865        0.000007522779518       -0.001457499224814
        0.193510746120400        0.000000236087055        0.000007445441451       -0.001424639322840
        0.195929630446905        0.000000231572204        0.000007302970797       -0.001380269680311
        0.198348514773410        0.000000226793746        0.000007152354255       -0.001335463429220
        0.200767399099915        0.000000219958214        0.000006936694694       -0.001279723543372
        0.203186283426420        0.000000212813722        0.000006711463203       -0.001223565220892
        0.205605167752925        0.000000203652737        0.000006422464441       -0.001157221958800
        0.208024052079430        0.000000194142192        0.000006122617617       -0.001090486339166
        0.210442936405935        0.000000182694181        0.000005761491741       -0.001014475826250
        0.212861820732440        0.000000170861578        0.000005388417335       -0.000938107107244
        0.215280705058945        0.000000157209124        0.000004957768982       -0.000853521151838
        0.217699589385450        0.000000143143354        0.000004514270620       -0.000768619259227
        0.220118473711955        0.000000127413361        0.000004018102148       -0.000676689367925
        0.222537358038460        0.000000111248288        0.000003508401665       -0.000584493843669
        0.224956242364965        0.000000093611329        0.000002952092652       -0.000486573068768
        0.227375126691470        0.000000075525032        0.000002381806348       -0.000388444786117
        0.229794011017975        0.000000056193882        0.000001772067163       -0.000285987679257
        0.232212895344480        0.000000036407075        0.000001148155801       -0.000183388660690
        0.234631779670985        0.000000015634421        0.000000492955479       -0.000077929635271
        0.237050663997490       -0.000000005591958       -0.000000176351721        0.000027598722067
        0.239469548323995       -0.000000027516594       -0.000000867882606        0.000134468293241
        0.241888432650500       -0.000000049884593       -0.000001573189205        0.000241328256083
        0.244307316977005       -0.000000072638694       -0.000002290879519        0.000347983862655
        0.246726201303510       -0.000000095817318       -0.000003021747122        0.000454545316667
        0.249145085630015       -0.000000119049907       -0.000003754528379        0.000559353693251
        0.251563969956520       -0.000000142679802       -0.000004499624261        0.000663978653568
        0.253982854283025       -0.000000166016629       -0.000005235694048        0.000765322356001
        0.256401738609530       -0.000000189715400       -0.000005982959026        0.000866389664117
        0.258820622936035       -0.000000212764686       -0.000006709962199        0.000962691469994
        0.261239507262540       -0.000000236132790       -0.000007446796269        0.001058621305375
        0.263658391589045       -0.000000258491448       -0.000008152021146        0.001148368072455
        0.266077275915550       -0.000000281118550       -0.000008865484023        0.001237645910388
        0.268496160242055       -0.000000302378785       -0.000009536070467        0.001319411535013
        0.270915044568560       -0.000000323850490       -0.000010213093853        0.001400611190842
        0.273333928895065       -0.000000343606670       -0.000010836249875        0.001473078322453
        0.275752813221570       -0.000000363511517       -0.000011463858032        0.001544883736436
        0.278171697548075       -0.000000381367196       -0.000012027081349        0.001606863923298
        0.280590581874580       -0.000000399303803       -0.000012592616323        0.001668089359517
        0.283009466201085       -0.000000414878786       -0.000013083917132        0.001718541324649
        0.285428350527590       -0.000000430463019       -0.000013575264847        0.001768149681505
        0.287847234854095       -0.000000443400347       -0.000013983386006        0.001806195456117
        0.290266119180600       -0.000000456272392       -0.000014389199350        0.001843314414442
        0.292685003507105       -0.000000466245117       -0.000014703830133        0.001868253088491
        0.295103887833610       -0.000000476076338       -0.000015013745143        0.001892188855908
        0.297522772160115       -0.000000482793978       -0.000015225724760        0.001903507741189
        0.299941656486620       -0.000000489293432       -0.000015430566068        0.001913756187416
        0.302360540813125       -0.000000492507983       -0.000015532073269        0.001911139227349
        0.304779425139630       -0.000000495428471       -0.000015624045069        0.001907394244180
        0.307198309466135       -0.000000494939866       -0.000015608770316        0.001890727545573
        0.309617193792640       -0.000000494083423       -0.000015581629315        0.001872886506689
        0.312036078119145       -0.000000489744333       -0.000015444926234        0.001842260911560
        0.314454962445650       -0.000000484967028       -0.000015294133263        0.001810427150468
        0.316873846772155       -0.000000476686915       -0.000015033146393        0.001766137809940
        0.319292731098660       -0.000000467902891       -0.000014755993691        0.001720620078583
        0.321711615425165       -0.000000455651220       -0.000014369759885        0.001663163035182
        0.324130499751670       -0.000000442835872       -0.000013965471395        0.001604471950402
        0.326549384078175       -0.000000426644420       -0.000013454992633        0.001534537779201
        0.328968268404680       -0.000000409836650       -0.000012924795075        0.001463379308658
        0.331387152731185       -0.000000389800851       -0.000012293080891        0.001381843910873
        0.333806037057690       -0.000000369104336       -0.000011640243821        0.001299109993572
        0.336224921384195       -0.000000345383619       -0.000010892322004        0.001207022677913
        0.338643805710700       -0.000000320967058       -0.000010122165557        0.001113779116397
        0.341062690037205       -0.000000293784157       -0.000009265060325        0.001012348142990
        0.343481574363710       -0.000000265880464       -0.000008384929850        0.000909819944114
        0.345900458690215       -0.000000235519685       -0.000007427607190        0.000800395742608
        0.348319343016720       -0.000000204424131       -0.000006446814520        0.000689950120871
        0.350738227343225       -0.000000171228582       -0.000005400094943        0.000574006427916
        0.353157111669730       -0.000000137295882       -0.000004329826597        0.000457133719121
        0.355575995996235       -0.000000101663704       -0.000003206266076        0.000336246910197
        0.357994880322740       -0.000000065304083       -0.000002059459229        0.000214539673240
        0.360413764649245       -0.000000027683704       -0.000000873199657        0.000090366589653
        0.362832648975750        0.000000010642008        0.000000335612754       -0.000034502799822
        0.365251533302255        0.000000049757521        0.000001569021773       -0.000160248207066
        0.367670417628760        0.000000089543725        0.000002823894888       -0.000286551146269
        0.370089301955265        0.000000129623153        0.000004087700583       -0.000412122017357
        0.372508186281770        0.000000170326147        0.000005371488018       -0.000538098107658
        0.374927070608275        0.000000210807350        0.000006647962540       -0.000661739370005
        0.377345954934780        0.000000251852753        0.000007942550468       -0.000785621337071
        0.379764839261285        0.000000292150547        0.000009213239324       -0.000905594540637
        0.382183723587790        0.000000332941369        0.000010499800949       -0.001025633284246
        0.384602607914295        0.000000372455936        0.000011745788196       -0.001140241219257
        0.387021492240800        0.000000412381178        0.000013005054962       -0.001254730632685
        0.389440376567305        0.000000450506886        0.000014207241253       -0.001362341377084
        0.391859260893810        0.000000488950542        0.000015419786788       -0.001469642580188
        0.394278145220315        0.000000525085033        0.000016559176129       -0.001568712633381
        0.396697029546820        0.000000561435366        0.000017705708678       -0.001667277272975
        0.399115913873325        0.000000594988791        0.000018763699521       -0.001756373446737
        0.401534798199830        0.000000628647736        0.000019825358436       -0.001844765732200
        0.403953682526335        0.000000659051979        0.000020784034628       -0.001922585488510
        0.406372566852840        0.000000689444527        0.000021742686332       -0.001999502649770
        0.408791451179345        0.000000716162288        0.000022585103388       -0.002064892598696
        0.411210335505850        0.000000742745707        0.000023423632196       -0.002129183477328
        0.413629219832355        0.000000765279284        0.000024134094351       -0.002181155775473
        0.416048104158860        0.000000787552038        0.000024836683542       -0.002231837287298
        0.418466988485365        0.000000805451679        0.000025401007147       -0.002269583708308
        0.420885872811870        0.000000822961883        0.000025953405772       -0.002305854947262
        0.423304757138375        0.000000835833575        0.000026359164752       -0.002328758430020
        0.425723641464880        0.000000848186869        0.000026748935829       -0.002350012217513
        0.428142525791385        0.000000855699419        0.000026985685124       -0.002357655734440
        0.430561410117890        0.000000862566116        0.000027202431104       -0.002363487455591
        0.432980294444395        0.000000864457419        0.000027261904348       -0.002355660082276
        0.435399178770900        0.000000865578813        0.000027297466030       -0.002345873689699
        0.437818063097405        0.000000861661195        0.000027173744035       -0.002322573797419
        0.440236947423910        0.000000856854918        0.000027022369487       -0.002297184903954
        0.442655831750415        0.000000847019458        0.000026712016536       -0.002258620437916
        0.445074716076920        0.000000836183782        0.000026370496990       -0.002217856461423
        0.447493600403425        0.000000820403530        0.000025872662399       -0.002164442309075
        0.449912484729930        0.000000803520555        0.000025340432555       -0.002108739674397
        0.452331369056435        0.000000781852585        0.000024656915464       -0.002041092169406
        0.454750253382940        0.000000758990218        0.000023936116182       -0.001971090614298
        0.457169137709445        0.000000731576470        0.000023071392086       -0.001890019262159
        0.459588022035950        0.000000702889178        0.000022166893958       -0.001806553334815
        0.462006906362455        0.000000669956052        0.000021128102055       -0.001713049884925
        0.464425790688960        0.000000635684333        0.000020047488979       -0.001617137760014
        0.466844675015465        0.000000597541037        0.000018844380006       -0.001512362785921
        0.469263559341970        0.000000558009627        0.000017597892442       -0.001405192563373
        0.471682443668475        0.000000515045275        0.000016242737259       -0.001290459747238
