#           time (fs)    |     mu_x (e.angstrom)   |     mu_y (e.angstrom)   |     mu_z (e.angstrom)   |
        0.000000000000000       -0.000000000000000       -0.000000000000000        0.000000000000000
        0.002418884326505       -0.000000001072252       -0.000000001035680        0.000053895932162
        0.004837768653010       -0.000000004289197       -0.000000004142857        0.000107795471582
        0.007256652979515       -0.000000009598872       -0.000000009271408        0.000160823381961
        0.009675537306020       -0.000000018719921       -0.000000018081229        0.000235228489360
        0.012094421632525       -0.000000030625817       -0.000000029580971        0.000307864267859
        0.014513305959030       -0.000000050474408       -0.000000048752307        0.000422821701611
        0.016932190285535       -0.000000074512885       -0.000000071970708        0.000535015459794
        0.019351074612040       -0.000000112950909       -0.000000109097217        0.000709624217442
        0.021769958938545       -0.000000157635630       -0.000000152257468        0.000880311299242
        0.024188843265050       -0.000000225279502       -0.000000217593353        0.001132248576670
        0.026607727591555       -0.000000301788892       -0.000000291492487        0.001378879740261
        0.029026611918060       -0.000000411618791       -0.000000397575072        0.001723953278395
        0.031445496244565       -0.000000533378968       -0.000000515181125        0.002062052921075
        0.033864380571070       -0.000000700250982       -0.000000676359637        0.002513788252280
        0.036283264897575       -0.000000882424618       -0.000000852317952        0.002956549087239
        0.038702149224080       -0.000001122498052       -0.000001084200375        0.003525819615737
        0.041121033550585       -0.000001381392055       -0.000001334261489        0.004083741601667
        0.043539917877090       -0.000001711486453       -0.000001653093521        0.004778448735508
        0.045958802203595       -0.000002063893591       -0.000001993477249        0.005459029313999
        0.048377686530100       -0.000002500791951       -0.000002415469290        0.006283839018934
        0.050796570856605       -0.000002963283359       -0.000002862181380        0.007091320839815
        0.053215455183110       -0.000003522999652       -0.000003402801041        0.008047462019267
        0.055634339509615       -0.000004111186723       -0.000003970920236        0.008982643342688
        0.058053223836120       -0.000004808217012       -0.000004644169007        0.010067772377059
        0.060472108162625       -0.000005536002212       -0.000005347123436        0.011127884248302
        0.062890992489130       -0.000006382579460       -0.000006164816922        0.012336018868200
        0.065309876815635       -0.000007261416306       -0.000007013669312        0.013514671984941
        0.067728761142140       -0.000008266789289       -0.000007984740743        0.014836196426424
        0.070147645468645       -0.000009304971898       -0.000008987502222        0.016123399379207
        0.072566529795150       -0.000010474728481       -0.000010117348820        0.017545141497064
        0.074985414121655       -0.000011676730853       -0.000011278340731        0.018927390785031
        0.077404298448160       -0.000013012185297       -0.000012568231920        0.020432770506451
        0.079823182774665       -0.000014378069727       -0.000013887514428        0.021893211436357
        0.082242067101170       -0.000015875732608       -0.000015334079839        0.023462458647295
        0.084660951427675       -0.000017400645462       -0.000016806964901        0.024981114939898
        0.087079835754180       -0.000019051793280       -0.000018401778666        0.026591553635305
        0.089498720080685       -0.000020725564698       -0.000020018443401        0.028145622314505
        0.091917604407190       -0.000022515924323       -0.000021747719359        0.029772016636143
        0.094336488733695       -0.000024322786430       -0.000023492933869        0.031336223587085
        0.096755373060200       -0.000026232347229       -0.000025337344111        0.032951180242014
        0.099174257386705       -0.000028150783004       -0.000027190325506        0.034498190717134
        0.101593141713210       -0.000030153746897       -0.000029124952132        0.036072611237175
        0.104012026039715       -0.000032156479180       -0.000031059353913        0.037573488584018
        0.106430910366220       -0.000034221355958       -0.000033053781096        0.039077063969607
        0.108849794692725       -0.000036275483109       -0.000035037824187        0.040501768968112
        0.111268679019230       -0.000038365335264       -0.000037056374652        0.041903508473914
        0.113687563345735       -0.000040432616869       -0.000039053123355        0.043221430917691
        0.116106447672240       -0.000042505454946       -0.000041055240243        0.044490216093672
        0.118525331998745       -0.000044542747662       -0.000043023023215        0.045670729640065
        0.120944216325250       -0.000046552073812       -0.000044963795093        0.046775884248701
        0.123363100651755       -0.000048511914152       -0.000046856768241        0.047788915103579
        0.125781984978260       -0.000050407408232       -0.000048687591792        0.048700781196643
        0.128200869304765       -0.000052238735716       -0.000050456436757        0.049517380896409
        0.130619753631270       -0.000053967074989       -0.000052125808513        0.050207891155907
        0.133038637957775       -0.000055616085861       -0.000053718557255        0.050800803563201
        0.135457522284280       -0.000057121886184       -0.000055172982675        0.051244039990679
        0.137876406610785       -0.000058533004727       -0.000056535955650        0.051588252631715
        0.140295290937290       -0.000059759868095       -0.000057720960925        0.051760981806784
        0.142714175263795       -0.000060876819650       -0.000058799803487        0.051834251845508
        0.145133059590300       -0.000061768470213       -0.000059661032796        0.051716427264879
        0.147551943916805       -0.000062535437284       -0.000060401831868        0.051499772729224
        0.149970828243310       -0.000063036925467       -0.000060886210416        0.051074995177565
        0.152389712569815       -0.000063399765933       -0.000061236671125        0.050553142521658
        0.154808596896320       -0.000063458718146       -0.000061293612220        0.049809070009651
        0.157227481222825       -0.000063366222510       -0.000061204272261        0.048970849707696
        0.159646365549330       -0.000062934112202       -0.000060786904992        0.047899549234180
        0.162065249875835       -0.000062339275219       -0.000060212362863        0.046738231850097
        0.164484134202340       -0.000061372689693       -0.000059278755705        0.045336466096220
        0.166903018528845       -0.000060233970484       -0.000058178887831        0.043850032149944
        0.169321902855350       -0.000058695847078       -0.000056693242640        0.042119475184159
        0.171740787181855       -0.000056978391164       -0.000055034383714        0.040310813130760
        0.174159671508360       -0.000054839196038       -0.000052968174300        0.038258190282960
        0.176578555834865       -0.000052515992501       -0.000050724234962        0.036135218022541
        0.178997440161370       -0.000049754815481       -0.000048057264575        0.033772366259889
        0.181416324487875       -0.000046807762817       -0.000045210760902        0.031348072790124
        0.183835208814380       -0.000043413302459       -0.000041932113689        0.028691919180376
        0.186254093140885       -0.000039834157569       -0.000038475083810        0.025984324272832
        0.188672977467390       -0.000035805571895       -0.000034583946525        0.023056781434650
        0.191091861793895       -0.000031596758071       -0.000030518731039        0.020088812541400
        0.193510746120400       -0.000026944358226       -0.000026025063030        0.016916591334743
        0.195929630446905       -0.000022119609968       -0.000021364927824        0.013715878291759
        0.198348514773410       -0.000016865376374       -0.000016289959581        0.010330219372164
        0.200767399099915       -0.000011450201315       -0.000011059541999        0.006928808837169
        0.203186283426420       -0.000005628104692       -0.000005436085214        0.003365136061445
        0.205605167752925        0.000000339954133        0.000000328352626       -0.000200871018384
        0.208024052079430        0.000006683841267        0.000006455797353       -0.003903371015916
        0.210442936405935        0.000013155156256        0.000012706321066       -0.007594254292025
        0.212861820732440        0.000019962768379        0.000019281669320       -0.011393120759354
        0.215280705058945        0.000026875800995        0.000025958839961       -0.015166041856248
        0.217699589385450        0.000034077415542        0.000032914748006       -0.019016090033616
        0.220118473711955        0.000041359118474        0.000039948010512       -0.022825653373228
        0.222537358038460        0.000048873921645        0.000047206421796       -0.026679578179655
        0.224956242364965        0.000056440370991        0.000054514715597       -0.030478443162649
        0.227375126691470        0.000064177251808        0.000061987627712       -0.034287467623445
        0.229794011017975        0.000071934506438        0.000069480216779       -0.038027003148277
        0.232212895344480        0.000079793073035        0.000077070663084       -0.041741561909579
        0.234631779670985        0.000087638253900        0.000084648178404       -0.045372533431308
        0.237050663997490        0.000095510061695        0.000092251414292       -0.048942981047570
        0.239469548323995        0.000103332639486        0.000099807097603       -0.052416259760502
        0.241888432650500        0.000111102616591        0.000107311977275       -0.055793592950250
        0.244307316977005        0.000118785891938        0.000114733110762       -0.059060876231536
        0.246726201303510        0.000126333943088        0.000122023636432       -0.062197458982982
        0.249145085630015        0.000133756699456        0.000129193139231       -0.065211990964728
        0.251563969956520        0.000140959465911        0.000136150160984       -0.068062271239979
        0.253982854283025        0.000147997771611        0.000142948329710       -0.070779552288155
        0.256401738609530        0.000154730521005        0.000149451370870       -0.073300759123237
        0.258820622936035        0.000161259653346        0.000155757738123       -0.075679233092520
        0.261239507262540        0.000167398270364        0.000161686918016       -0.077832043117761
        0.263658391589045        0.000173294732018        0.000167382199950       -0.079833751519135
        0.266077275915550        0.000178717778164        0.000172620223387       -0.081582914325251
        0.268496160242055        0.000183861373302        0.000177588325020       -0.083174106982004
        0.270915044568560        0.000188452181909        0.000182022505833       -0.084489019323876
        0.273333928895065        0.000192728117732        0.000186152550871       -0.085640711693572
        0.275752813221570        0.000196376888818        0.000189676835295       -0.086495931246422
        0.278171697548075        0.000199677866680        0.000192865185912       -0.087184399341401
        0.280590581874580        0.000202283725299        0.000195382140707       -0.087560089591284
        0.283009466201085        0.000204511984842        0.000197534371942       -0.087767294326655
        0.285428350527590        0.000205984966246        0.000198957101826       -0.087649593175756
        0.287847234854095        0.000207054245817        0.000199989895112       -0.087363526998307
        0.290266119180600        0.000207317171036        0.000200243854343       -0.086744832780822
        0.292685003507105        0.000207154548107        0.000200086775134       -0.085959782569972
        0.295103887833610        0.000206144754520        0.000199111439046       -0.084838952390408
        0.297522772160115        0.000204692330974        0.000197708564605       -0.083555673857206
        0.299941656486620        0.000202363224035        0.000195458928385       -0.081938130462410
        0.302360540813125        0.000199579622949        0.000192770293499       -0.080163930586971
        0.304779425139630        0.000195902017435        0.000189218167677       -0.078061675347657
        0.307198309466135        0.000191763660385        0.000185220998384       -0.075810400770663
        0.309617193792640        0.000186726882386        0.000180356073221       -0.073241931757863
        0.312036078119145        0.000181229019297        0.000175045781519       -0.070533862457764
        0.314454962445650        0.000174841743540        0.000168876435771       -0.067523998033944
        0.316873846772155        0.000167999210646        0.000162267351718       -0.064385647057384
        0.319292731098660        0.000160290011691        0.000154821185021       -0.060965256839317
        0.321711615425165        0.000152137697253        0.000146947006563       -0.057429078286313
        0.324130499751670        0.000143155297452        0.000138271078935       -0.053634724755285
        0.326549384078175        0.000133748299377        0.000129185024144       -0.049738733630605
        0.328968268404680        0.000123561501296        0.000119345790713       -0.045612229042855
        0.331387152731185        0.000112974965699        0.000109120441858       -0.041399537948584
        0.333806037057690        0.000101672261778        0.000098203375840       -0.036987422513112
        0.336224921384195        0.000090000896723        0.000086930209720       -0.032505701452617
        0.338643805710700        0.000077689754306        0.000075039111844       -0.027858649973183
        0.341062690037205        0.000065047018360        0.000062827716017       -0.023159516742338
        0.343481574363710        0.000051852843686        0.000050083713867       -0.018331682045442
        0.345900458690215        0.000038369814424        0.000037060693767       -0.013470031783118
        0.348319343016720        0.000024434604727        0.000023600939862       -0.008518334255154
        0.350738227343225        0.000010258537897        0.000009908527123       -0.003551617693298
        0.353157111669730       -0.000004260763804       -0.000004115390150        0.001465008888847
        0.355575995996235       -0.000018968168294       -0.000018321012555        0.006477548111041
        0.357994880322740       -0.000033901595743       -0.000032744925904        0.011498943565479
        0.360413764649245       -0.000048966199574       -0.000047295560970        0.016497061492614
        0.362832648975750       -0.000064132938165       -0.000061944824873        0.021462647604120
        0.365251533302255       -0.000079370415610       -0.000076662435771        0.026385910933243
        0.367670417628760       -0.000094581199811       -0.000091354242110        0.031235509417719
        0.370089301955265       -0.000109799502870       -0.000106053333211        0.036024112997586
        0.372508186281770       -0.000124859202110       -0.000120599208932        0.040698761084517
        0.374927070608275       -0.000139861204428       -0.000135089379524        0.045294339962290
        0.377345954934780       -0.000154571559528       -0.000149297829704        0.049737091624164
        0.379764839261285       -0.000169157840119       -0.000163386462732        0.054083515705428
        0.382183723587790       -0.000183320309134       -0.000177065719330        0.058240216752179
        0.384602607914295       -0.000197292033807       -0.000190560764519        0.062284356374015
        0.387021492240800       -0.000210710703575       -0.000203521598585        0.066104382001921
        0.389440376567305       -0.000223872559618       -0.000216234406989        0.069796833133763
        0.391859260893810       -0.000236357077424       -0.000228292960305        0.073233777066071
        0.394278145220315       -0.000248520215366       -0.000240041125709        0.076529535442477
        0.396697029546820       -0.000259888694002       -0.000251021716740        0.079541840514703
        0.399115913873325       -0.000270873629392       -0.000261631878423        0.082400914758910
        0.401534798199830       -0.000280955478555       -0.000271369737105        0.084952435673795
        0.403953682526335       -0.000290594906509       -0.000280680298370        0.087340390378962
        0.406372566852840       -0.000299233543889       -0.000289024184709        0.089400880371032
        0.408791451179345       -0.000307375019858       -0.000296887902177        0.091289301153189
        0.411210335505850       -0.000314430416522       -0.000303702564784        0.092834815444473
        0.413629219832355       -0.000320938858142       -0.000309988964889        0.094201689151009
        0.416048104158860       -0.000326289874829       -0.000315157397568        0.095214899330151
        0.418466988485365       -0.000331049841968       -0.000319754978812        0.096044903861875
        0.420885872811870       -0.000334596315683       -0.000323180435961        0.096515318658879
        0.423304757138375       -0.000337514028791       -0.000325998618400        0.096800018222425
        0.425723641464880       -0.000339178572598       -0.000327606353401        0.096724107559899
        0.428142525791385       -0.000340183633153       -0.000328577140393        0.096462050589388
        0.430561410117890       -0.000339913116225       -0.000328315835163        0.095843271246401
        0.432980294444395       -0.000338959897440       -0.000327395156624        0.095039989696835
        0.435399178770900       -0.000336726577224       -0.000325238015152        0.093888712400932
        0.437818063097405       -0.000333795258132       -0.000322406726364        0.092556622598049
        0.440236947423910       -0.000329597541789       -0.000318352210173        0.090889961841737
        0.442655831750415       -0.000324694763295       -0.000313616725450        0.089048168551316
        0.445074716076920       -0.000318557581370       -0.000307688914517        0.086889717888638
        0.447493600403425       -0.000311716708769       -0.000301081460768        0.084563724719644
        0.449912484729930       -0.000303691490166       -0.000293330029350        0.081943201713915
        0.452331369056435       -0.000294972472867       -0.000284908510589        0.079164532372301
        0.454750253382940       -0.000285136716599       -0.000275408313585        0.076117338716037
        0.457169137709445       -0.000274625542267       -0.000265255783701        0.072923074957844
        0.459588022035950       -0.000263081988025       -0.000254106055519        0.069489778549613
        0.462006906362455       -0.000250889734984       -0.000242329803005        0.065922021922942
        0.464425790688960       -0.000237765141150       -0.000229652977265        0.062147768843948
        0.466844675015465       -0.000224026639490       -0.000216383232010        0.058253034440126
        0.469263559341970       -0.000209470183778       -0.000202323396753        0.054186899807905
        0.471682443668475       -0.000194342302170       -0.000187711675307        0.050015451245371
