#             time (fs)      |   total net charge (e)  |   charge (atom_1) (e)   |   charge (atom_2) (e)   |        ...        |   charge (atom_N) (e)   |
          0.000000000000000       -0.000000000000000       -0.000000000000000        0.000000000000000
          0.120944216325250        0.000000000007373        0.000045658906404       -0.000045658899032
          0.241888432650500        0.000000000011000        0.000169595784009       -0.000169595773009
          0.362832648975750        0.000000000010914        0.000414404591627       -0.000414404580712
          0.483776865301000        0.000000000007052        0.000597630999816       -0.000597630992764
          0.604721081626250        0.000000000000016        0.000810780558639       -0.000810780558623
          0.725665297951500       -0.000000000010203        0.000887641094581       -0.000887641104784
          0.846609514276750       -0.000000000022782        0.000816259702296       -0.000816259725078
          0.967553730602000       -0.000000000037420        0.000666952763318       -0.000666952800738
          1.088497946927250       -0.000000000053602        0.000180827927693       -0.000180827981296
          1.209442163252500       -0.000000000070073       -0.000147219955933        0.000147219885860
          1.330386379577750       -0.000000000087211       -0.000968111841617        0.000968111754406
          1.451330595903000       -0.000000000102559       -0.001232430797382        0.001232430694823
          1.572274812228250       -0.000000000117578       -0.002124411883359        0.002124411765781
          1.693219028553500       -0.000000000129402       -0.001981600690479        0.001981600561077
          1.814163244878750       -0.000000000139863       -0.002634109094122        0.002634108954259
          1.935107461204000       -0.000000000146867       -0.001815986000364        0.001815985853497
          2.056051677529250       -0.000000000151433       -0.002052266294772        0.002052266143340
          2.176995893854500       -0.000000000152754       -0.000533850361760        0.000533850209007
          2.297940110179750       -0.000000000150744       -0.000439100668699        0.000439100517955
          2.418884326505000       -0.000000000145639        0.001496898492244       -0.001496898637882
          2.539828542830250       -0.000000000137055        0.001577625940689       -0.001577626077744
          2.660772759155500       -0.000000000126041        0.003430346657438       -0.003430346783479
          2.781716975480750       -0.000000000112063        0.003039849700456       -0.003039849812519
          2.902661191806000       -0.000000000097432        0.004306584203394       -0.004306584300826
          3.023605408131250       -0.000000000079889        0.003106197682066       -0.003106197761956
          3.144549624456500       -0.000000000064207        0.003527717047052       -0.003527717111259
          3.265493840781750       -0.000000000044756        0.001498664943982       -0.001498664988739
          3.386438057107000       -0.000000000029918        0.001212845672816       -0.001212845702734
          3.507382273432250       -0.000000000010909       -0.001278841660266        0.001278841649357
          3.628326489757500        0.000000000000756       -0.001760950929822        0.001760950930577
          3.749270706082750        0.000000000015338       -0.004085460759853        0.004085460775190
          3.870214922408000        0.000000000020907       -0.004087760609991        0.004087760630898
          3.991159138733250        0.000000000027518       -0.005618701951445        0.005618701978963
          4.112103355058500        0.000000000025848       -0.004607583035362        0.004607583061210
          4.233047571383750        0.000000000024151       -0.005017508270279        0.005017508294430
          4.353991787709000        0.000000000016600       -0.002869811618183        0.002869811634783
          4.474936004034250        0.000000000008371       -0.002314237549347        0.002314237557718
          4.595880220359500       -0.000000000003968        0.000581716854948       -0.000581716858916
          4.716824436684750       -0.000000000017671        0.001489051108986       -0.001489051126658
          4.837768653010000       -0.000000000035063        0.004358869746631       -0.004358869781694
          4.958712869335250       -0.000000000053025        0.004788679151973       -0.004788679204998
          5.079657085660500       -0.000000000073867        0.006783793008921       -0.006783793082788
          5.200601301985750       -0.000000000092179        0.006058370378631       -0.006058370470810
          5.321545518311000       -0.000000000111461        0.006624356804836       -0.006624356916296
          5.442489734636251       -0.000000000125385        0.004549440462637       -0.004549440588022
          5.563433950961501       -0.000000000138471        0.003689054255554       -0.003689054394025
          5.684378167286750       -0.000000000146145        0.000697953270925       -0.000697953417069
          5.805322383612000       -0.000000000151539       -0.000993895629434        0.000993895477896
          5.926266599937250       -0.000000000152581       -0.003964491705567        0.003964491552987
          6.047210816262500       -0.000000000149527       -0.005527674329294        0.005527674179767
          6.168155032587750       -0.000000000141899       -0.007400069569330        0.007400069427431
          6.289099248913001       -0.000000000129401       -0.007918450199049        0.007918450069648
          6.410043465238251       -0.000000000112566       -0.007932594090739        0.007932593978173
          6.530987681563500       -0.000000000093317       -0.006955370835616        0.006955370742299
          6.651931897888750       -0.000000000072685       -0.005027566695395        0.005027566622710
          6.772876114214000       -0.000000000053148       -0.002816036339703        0.002816036286555
          6.893820330539250       -0.000000000035109        0.000366584036609       -0.000366584071718
          7.014764546864500       -0.000000000018267        0.002892138943742       -0.002892138962009
          7.135708763189751       -0.000000000002246        0.006106573455382       -0.006106573457628
          7.256652979515001        0.000000000014228        0.007727555458652       -0.007727555444425
          7.377597195840250        0.000000000031405        0.009706255150947       -0.009706255119542
          7.498541412165500        0.000000000045852        0.009439698694137       -0.009439698648285
          7.619485628490750        0.000000000059488        0.009418868236610       -0.009418868177122
          7.740429844816000        0.000000000062755        0.006994587948841       -0.006994587886086
          7.861374061141250        0.000000000063899        0.005078732223765       -0.005078732159866
          7.982318277466501        0.000000000051856        0.001138802485438       -0.001138802433582
          8.103262493791750        0.000000000041271       -0.001694366187462        0.001694366228733
          8.224206710117000        0.000000000023477       -0.005789896039690        0.005789896063168
          8.345150926442249        0.000000000011091       -0.008078863374994        0.008078863386085
          8.466095142767500       -0.000000000001769       -0.010790309102821        0.010790309101053
          8.587039359092751       -0.000000000012215       -0.011229820312479        0.011229820300264
          8.707983575418000       -0.000000000022413       -0.011500474139012        0.011500474116599
          8.828927791743251       -0.000000000036208       -0.009554646068637        0.009554646032430
          8.949872008068500       -0.000000000050652       -0.007302021966921        0.007302021916269
          9.070816224393750       -0.000000000067781       -0.003509666953525        0.003509666885743
          9.191760440718999       -0.000000000082909        0.000285901547515       -0.000285901630424
          9.312704657044250       -0.000000000094211        0.004471708248929       -0.004471708343140
          9.433648873369501       -0.000000000101001        0.008149241562984       -0.008149241663986
          9.554593089694750       -0.000000000102208        0.010949735291279       -0.010949735393487
          9.675537306020001       -0.000000000100109        0.012879682134033       -0.012879682234142
          9.796481522345250       -0.000000000096231        0.012964027109496       -0.012964027205727
          9.917425738670500       -0.000000000089635        0.012279736385741       -0.012279736475376
         10.038369954995749       -0.000000000081585        0.009377266805000       -0.009377266886585
         10.159314171321000       -0.000000000069028        0.006394601229043       -0.006394601298070
         10.280258387646251       -0.000000000050673        0.001466316094470       -0.001466316145143
         10.401202603971500       -0.000000000030822       -0.002406252418929        0.002406252388108
         10.522146820296751       -0.000000000004365       -0.007532023040748        0.007532023036383
         10.643091036622000        0.000000000013958       -0.010377397856617        0.010377397870575
         10.764035252947250        0.000000000035480       -0.013770044404821        0.013770044440301
         10.884979469272501        0.000000000044531       -0.013999076616906        0.013999076661437
         11.005923685597750        0.000000000056808       -0.014460503900908        0.014460503957716
         11.126867901923001        0.000000000064379       -0.011529249424467        0.011529249488845
         11.247812118248250        0.000000000077040       -0.009127218153256        0.009127218230296
         11.368756334573501        0.000000000092823       -0.003817460139329        0.003817460232153
         11.489700550898750        0.000000000107841        0.000116931472929       -0.000116931365088
         11.610644767224001        0.000000000122036        0.005983107146626       -0.005983107024590
         11.731588983549251        0.000000000125211        0.009406788385574       -0.009406788260363
         11.852533199874500        0.000000000119978        0.013713758382758       -0.013713758262780
         11.973477416199751        0.000000000104556        0.014749759958089       -0.014749759853532
         12.094421632525000        0.000000000082304        0.015980429321158       -0.015980429238853
         12.215365848850251        0.000000000062838        0.013742922781400       -0.013742922718563
         12.336310065175500        0.000000000042193        0.011627904306220       -0.011627904264027
         12.457254281500751        0.000000000031882        0.006640055771967       -0.006640055740085
         12.578198497826001        0.000000000019156        0.002290366978509       -0.002290366959353
         12.699142714151250        0.000000000011402       -0.003682476533367        0.003682476544770
         12.820086930476501       -0.000000000001895       -0.008222132737960        0.008222132736065
         12.941031146801750       -0.000000000015222       -0.012872809490188        0.012872809474965
         13.061975363127001       -0.000000000028949       -0.015480779838634        0.015480779809685
         13.182919579452250       -0.000000000038793       -0.016916320855275        0.016916320816482
         13.303863795777501       -0.000000000042025       -0.016303355006325        0.016303354964300
         13.424808012102751       -0.000000000038807       -0.013853860400020        0.013853860361214
         13.545752228428000       -0.000000000031357       -0.010140820745740        0.010140820714382
         13.666696444753251       -0.000000000022616       -0.004682698881414        0.004682698858798
         13.787640661078500       -0.000000000013971        0.000594801866821       -0.000594801880792
         13.908584877403751       -0.000000000006106        0.006947536598224       -0.006947536604330
         14.029529093729000        0.000000000007359        0.011434273876217       -0.011434273868858
         14.150473310054251        0.000000000025748        0.016176471087900       -0.016176471062153
         14.271417526379501        0.000000000054929        0.017677200217257       -0.017677200162328
         14.392361742704750        0.000000000089317        0.018961955703674       -0.018961955614357
         14.513305959030001        0.000000000122010        0.016399453818780       -0.016399453696770
         14.634250175355250        0.000000000150717        0.013845819303170       -0.013845819152453
         14.755194391680501        0.000000000158757        0.007787092308465       -0.007787092149708
         14.876138608005750        0.000000000163028        0.002699850536176       -0.002699850373148
         14.997082824331001        0.000000000147096       -0.004789156582412        0.004789156729508
         15.118027040656251        0.000000000144185       -0.009911206253940        0.009911206398125
         15.238971256981500        0.000000000136590       -0.016070006702999        0.016070006839589
         15.359915473306751        0.000000000149918       -0.018577098072059        0.018577098221978
         15.480859689632000        0.000000000161712       -0.021109158826726        0.021109158988438
         15.601803905957251        0.000000000176026       -0.019362093428287        0.019362093604313
         15.722748122282500        0.000000000178380       -0.017445900045439        0.017445900223820
         15.843692338607751        0.000000000162767       -0.011585304215722        0.011585304378489
         15.964636554933001        0.000000000137271       -0.006290445624292        0.006290445761562
         16.085580771258250        0.000000000100115        0.001730801638955       -0.001730801538840
         16.206524987583499        0.000000000070447        0.007829753738112       -0.007829753667665
         16.327469203908752        0.000000000048427        0.015008995972992       -0.015008995924565
         16.448413420234001        0.000000000038539        0.018908098006948       -0.018908097968408
         16.569357636559250        0.000000000039190        0.022463760755365       -0.022463760716175
         16.690301852884499        0.000000000037766        0.022046770704943       -0.022046770667177
         16.811246069209751        0.000000000037901        0.020637737851348       -0.020637737813446
         16.932190285535000        0.000000000030090        0.015642359138586       -0.015642359108496
         17.053134501860249        0.000000000024359        0.009991117849989       -0.009991117825630
         17.174078718185502        0.000000000022672        0.002195421658389       -0.002195421635716
         17.295022934510751        0.000000000028658       -0.005164705661207        0.005164705689865
         17.415967150836000        0.000000000043043       -0.012644571980556        0.012644572023599
         17.536911367161249        0.000000000059892       -0.018429367852349        0.018429367912241
         17.657855583486501        0.000000000072320       -0.022466323164274        0.022466323236594
         17.778799799811750        0.000000000082466       -0.024066968713999        0.024066968796465
         17.899744016136999        0.000000000084296       -0.022888725199842        0.022888725284138
         18.020688232462252        0.000000000094962       -0.019519287525542        0.019519287620503
         18.141632448787501        0.000000000111303       -0.013501339976116        0.013501340087420
         18.262576665112750        0.000000000144166       -0.006566716610169        0.006566716754335
         18.383520881437999        0.000000000186933        0.001881633168879       -0.001881632981946
         18.504465097763251        0.000000000227003        0.009357891819485       -0.009357891592483
         18.625409314088500        0.000000000260157        0.016786523871321       -0.016786523611164
         18.746353530413749        0.000000000267309        0.021458242865591       -0.021458242598282
         18.867297746739002        0.000000000260302        0.024842600852196       -0.024842600591894
         18.988241963064251        0.000000000237810        0.024497017683668       -0.024497017445857
         19.109186179389500        0.000000000218271        0.022523412876565       -0.022523412658293
         19.230130395714749        0.000000000212129        0.017049791499300       -0.017049791287171
         19.351074612040001        0.000000000218049        0.010668400802310       -0.010668400584261
         19.472018828365250        0.000000000239570        0.002144734921961       -0.002144734682391
         19.592963044690499        0.000000000254272       -0.005824494062114        0.005824494316387
         19.713907261015752        0.000000000261302       -0.013964392075472        0.013964392336774
         19.834851477341001        0.000000000246067       -0.020025896035986        0.020025896282053
         19.955795693666250        0.000000000216614       -0.024420540576784        0.024420540793399
         20.076739909991499        0.000000000180530       -0.025898884168991        0.025898884349521
         20.197684126316751        0.000000000148453       -0.024667741369922        0.024667741518374
         20.318628342642000        0.000000000129606       -0.020851283363382        0.020851283492988
         20.439572558967249        0.000000000122729       -0.014386758290661        0.014386758413390
         20.560516775292502        0.000000000123348       -0.006856405957562        0.006856406080910
         20.681460991617751        0.000000000124688        0.002306004376562       -0.002306004251874
         20.802405207943000        0.000000000122917        0.010290419546250       -0.010290419423333
         20.923349424268253        0.000000000119145        0.018490850961504       -0.018490850842358
         21.044293640593501        0.000000000122298        0.023332325564062       -0.023332325441764
         21.165237856918750        0.000000000134212        0.027305460195605       -0.027305460061392
         21.286182073243999        0.000000000161379        0.026590106014707       -0.026590105853328
         21.407126289569252        0.000000000194349        0.024839645007380       -0.024839644813031
         21.528070505894501        0.000000000222437        0.018385444693563       -0.018385444471126
         21.649014722219750        0.000000000241624        0.011844958798575       -0.011844958556951
         21.769958938545003        0.000000000236260        0.001856089284727       -0.001856089048467
         21.890903154870252        0.000000000231987       -0.006433460980641        0.006433461212628
         22.011847371195501        0.000000000218261       -0.016199156192088        0.016199156410349
         22.132791587520749        0.000000000234992       -0.022321513255463        0.022321513490455
         22.253735803846002        0.000000000262454       -0.028093439662888        0.028093439925341
         22.374680020171251        0.000000000317177       -0.028922159064483        0.028922159381661
         22.495624236496500        0.000000000366101       -0.028523307482601        0.028523307848702
         22.616568452821753        0.000000000398770       -0.023092732703145        0.023092733101915
         22.737512669147002        0.000000000400428       -0.016914946817904        0.016914947218332
         22.858456885472251        0.000000000364111       -0.006914919570082        0.006914919934193
         22.979401101797500        0.000000000317054        0.002148975465170       -0.002148975148117
         23.100345318122752        0.000000000262239        0.012987034117336       -0.012987033855098
