#           time (fs)    |     mu_x (e.angstrom)   |     mu_y (e.angstrom)   |     mu_z (e.angstrom)   |
        0.000000000000000       -0.000000000000000       -0.000000000000000        0.000000000000000
        0.002418884326505        0.000000002278766        0.000000000391099        0.000012169767531
        0.004837768653010        0.000000009114460        0.000000001563188        0.000024334357936
        0.007256652979515        0.000000020395611        0.000000003498806        0.000036300538893
        0.009675537306020        0.000000036170488        0.000000006203469        0.000048278017688
        0.012094421632525        0.000000056081936        0.000000009619791        0.000059880103154
        0.014513305959030        0.000000080394244        0.000000013788124        0.000071526153959
        0.016932190285535        0.000000108376818        0.000000018589249        0.000082642272844
        0.019351074612040        0.000000140669445        0.000000024125705        0.000093850605153
        0.021769958938545        0.000000176052031        0.000000030196531        0.000104399298408
        0.024188843265050        0.000000215686826        0.000000036991662        0.000115103105454
        0.026607727591555        0.000000257763894        0.000000044211187        0.000125044320300
        0.029026611918060        0.000000304097532        0.000000052154658        0.000135216971567
        0.031445496244565        0.000000352206967        0.000000060409324        0.000144552258731
        0.033864380571070        0.000000404666298        0.000000069402836        0.000154207215214
        0.036283264897575        0.000000458265443        0.000000078599574        0.000162979125434
        0.038702149224080        0.000000516420293        0.000000088569349        0.000172169078689
        0.041121033550585        0.000000575158134        0.000000098647957        0.000180459768088
        0.043539917877090        0.000000638789564        0.000000109556443        0.000189275017112
        0.045958802203595        0.000000702573051        0.000000120500962        0.000197204084318
        0.048377686530100        0.000000771735161        0.000000132357438        0.000205770177077
        0.050796570856605        0.000000840787804        0.000000144206199        0.000213491767861
        0.053215455183110        0.000000915861314        0.000000157075959        0.000221966446703
        0.055634339509615        0.000000990772332        0.000000169930017        0.000229665674292
        0.058053223836120        0.000001072508326        0.000000183941875        0.000238235176264
        0.060472108162625        0.000001154270829        0.000000197971553        0.000246123917143
        0.062890992489130        0.000001243823273        0.000000213323419        0.000254998691244
        0.065309876815635        0.000001333860189        0.000000228772755        0.000263310826906
        0.067728761142140        0.000001432806061        0.000000245735089        0.000272720740340
        0.070147645468645        0.000001532982780        0.000000262924008        0.000281706925067
        0.072566529795150        0.000001643328916        0.000000281840991        0.000291896039421
        0.074985414121655        0.000001755951932        0.000000301165067        0.000301818082438
        0.077404298448160        0.000001880127988        0.000000322453396        0.000313039088312
        0.079823182774665        0.000002007929082        0.000000344381143        0.000324164045551
        0.082242067101170        0.000002148766310        0.000000368526391        0.000336672450297
        0.084660951427675        0.000002294872191        0.000000393594053        0.000349266526320
        0.087079835754180        0.000002455568052        0.000000421144598        0.000363314694186
        0.089498720080685        0.000002623455656        0.000000449948483        0.000377637058527
        0.091917604407190        0.000002807524610        0.000000481507068        0.000393468205482
        0.094336488733695        0.000003000962609        0.000000514693518        0.000409764829659
        0.096755373060200        0.000003212173726        0.000000550906550        0.000427607076510
        0.099174257386705        0.000003435151125        0.000000589159691        0.000446104698198
        0.101593141713210        0.000003677453505        0.000000630704453        0.000466165285234
        0.104012026039715        0.000003934096477        0.000000674731934        0.000487065604595
        0.106430910366220        0.000004211533726        0.000000722301909        0.000509525368903
        0.108849794692725        0.000004506012182        0.000000772818876        0.000532999578814
        0.111268679019230        0.000004822627477        0.000000827107474        0.000558007791638
        0.113687563345735        0.000005159053070        0.000000884819077        0.000584191538643
        0.116106447672240        0.000005518786611        0.000000946502038        0.000611861194794
        0.118525331998745        0.000005901104155        0.000001012084807        0.000640850061001
        0.120944216325250        0.000006307684977        0.000001081801651        0.000671253705373
        0.123363100651755        0.000006739559417        0.000001155884109        0.000703099293497
        0.125781984978260        0.000007196393744        0.000001234218986        0.000736265461377
        0.128200869304765        0.000007681095007        0.000001317361903        0.000770972155610
        0.130619753631270        0.000008191153452        0.000001404824243        0.000806882493799
        0.133038637957775        0.000008731441577        0.000001497500932        0.000844404958489
        0.135457522284280        0.000009297147569        0.000001594506313        0.000882992083421
        0.137876406610785        0.000009895160611        0.000001697083404        0.000923233549752
        0.140295290937290        0.000010518282507        0.000001803935046        0.000964379686974
        0.142714175263795        0.000011175429697        0.000001916654162        0.001007191065155
        0.145133059590300        0.000011856978981        0.000002033525469        0.001050727501953
        0.147551943916805        0.000012573841606        0.000002156486228        0.001095907343061
        0.149970828243310        0.000013313979561        0.000002283404779        0.001141614712805
        0.152389712569815        0.000014090221919        0.000002416549520        0.001188910030602
        0.154808596896320        0.000014888177040        0.000002553382908        0.001236519433831
        0.157227481222825        0.000015722469698        0.000002696483531        0.001285627382829
        0.159646365549330        0.000016576467939        0.000002842927399        0.001334822336378
        0.162065249875835        0.000017466425336        0.000002995574666        0.001385392728318
        0.164484134202340        0.000018373635125        0.000003151143279        0.001435811920157
        0.166903018528845        0.000019315769321        0.000003312738882        0.001487450547247
        0.169321902855350        0.000020272262991        0.000003476758515        0.001538691361348
        0.171740787181855        0.000021261955098        0.000003646510178        0.001590964081193
        0.174159671508360        0.000022262688129        0.000003818115558        0.001642586843923
        0.176578555834865        0.000023294178646        0.000003995035385        0.001695024368349
        0.178997440161370        0.000024332987798        0.000004173169373        0.001746557255793
        0.181416324487875        0.000025399386734        0.000004356075587        0.001798660573942
        0.183835208814380        0.000026469007787        0.000004539492226        0.001849605108415
        0.186254093140885        0.000027562325094        0.000004727014391        0.001900851463722
        0.188672977467390        0.000028654430571        0.000004914285380        0.001950688517678
        0.191091861793895        0.000029765627014        0.000005104873133        0.002000537848863
        0.193510746120400        0.000030870883867        0.000005294397727        0.002048734065692
        0.195929630446905        0.000031989942086        0.000005486332969        0.002096635813840
        0.198348514773410        0.000033098088956        0.000005676351231        0.002142650347742
        0.200767399099915        0.000034214104052        0.000005867763671        0.002188050525064
        0.203186283426420        0.000035314047299        0.000006056372952        0.002231341996452
        0.205605167752925        0.000036415335907        0.000006245258815        0.002273690407513
        0.208024052079430        0.000037495263264        0.000006430433249        0.002313723966372
        0.210442936405935        0.000038569489682        0.000006614676917        0.002352481469528
        0.212861820732440        0.000039616999980        0.000006794289677        0.002388735856830
        0.215280705058945        0.000040651317569        0.000006971687944        0.002423381552429
        0.217699589385450        0.000041653564681        0.000007143535929        0.002455356049195
        0.220118473711955        0.000042634770418        0.000007311824511        0.002485394281730
        0.222537358038460        0.000043578619215        0.000007473655103        0.002512615436619
        0.224956242364965        0.000044493318977        0.000007630536990        0.002537582500513
        0.227375126691470        0.000045365510843        0.000007780076442        0.002559610529929
        0.229794011017975        0.000046200292754        0.000007923251628        0.002579080972977
        0.232212895344480        0.000046987617959        0.000008058234625        0.002595515732472
        0.234631779670985        0.000047729230908        0.000008185430728        0.002609108156998
        0.237050663997490        0.000048418704948        0.000008303630635        0.002619594589323
        0.239469548323995        0.000049054239235        0.000008412633877        0.002626976858885
        0.241888432650500        0.000049633280113        0.000008511893138        0.002631209832087
        0.244307316977005        0.000050150347073        0.000008600579149        0.002632103600794
        0.246726201303510        0.000050606950424        0.000008678839324        0.002629832059325
        0.249145085630015        0.000050993857829        0.000008745203218        0.002624016551532
        0.251563969956520        0.000051316766749        0.000008800534100        0.002615046914156
        0.253982854283025        0.000051562686811        0.000008842719289        0.002602361894171
        0.256401738609530        0.000051741553308        0.000008873346590        0.002586560644434
        0.258820622936035        0.000051836680177        0.000008889671783        0.002566908528793
        0.261239507262540        0.000051862215245        0.000008894002862        0.002544203956705
        0.263658391589045        0.000051797909023        0.000008882986758        0.002517551035313
        0.266077275915550        0.000051662018496        0.000008859633917        0.002487934102494
        0.268496160242055        0.000051430933009        0.000008820017107        0.002454310849259
        0.270915044568560        0.000051126836569        0.000008767817987        0.002417835163931
        0.273333928895065        0.000050723028365        0.000008698581639        0.002377335632219
        0.275752813221570        0.000050245359347        0.000008616616328        0.002334116534774
        0.278171697548075        0.000049664375698        0.000008516997271        0.002286896847816
        0.280590581874580        0.000049009259644        0.000008404601764        0.002237109622109
        0.283009466201085        0.000048248203714        0.000008274103650        0.002183385583191
        0.285428350527590        0.000047413313984        0.000008130879380        0.002127262822891
        0.287847234854095        0.000046470885667        0.000007969279679        0.002067306684459
        0.290266119180600        0.000045455474849        0.000007795098889        0.002005134857531
        0.292685003507105        0.000044331986261        0.000007602451535        0.001939271302045
        0.295103887833610        0.000043136892495        0.000007397458356        0.001871386569506
        0.297522772160115        0.000041834257536        0.000007174091951        0.001799987967760
        0.299941656486620        0.000040461885389        0.000006938699112        0.001726771325010
        0.302360540813125        0.000038983583271        0.000006685210659        0.001650252349421
        0.304779425139630        0.000037437859215        0.000006420091847        0.001572124169530
        0.307198309466135        0.000035788872353        0.000006137336094        0.001490935850453
        0.309617193792640        0.000034075175417        0.000005843414054        0.001408349918547
        0.312036078119145        0.000032261902548        0.000005532488592        0.001322973240802
        0.314454962445650        0.000030386971169        0.000005210919144        0.001236410377014
        0.316873846772155        0.000028417117076        0.000004873145488        0.001147349521301
        0.319292731098660        0.000026388933641        0.000004525297734        0.001057310896472
        0.321711615425165        0.000024271377290        0.000004162198709        0.000965086236174
        0.324130499751670        0.000022099032327        0.000003789631731        0.000872086489482
        0.326549384078175        0.000019843675683        0.000003402905546        0.000777227457314
        0.328968268404680        0.000017537214047        0.000003007342036        0.000681787728206
        0.331387152731185        0.000015154814242        0.000002598833504        0.000584825669222
        0.333806037057690        0.000012725066035        0.000002182130768        0.000487466657346
        0.336224921384195        0.000010227053900        0.000001753800186        0.000388927784986
        0.338643805710700        0.000007685453198        0.000001317919061        0.000290162951246
        0.341062690037205        0.000005083741501        0.000000871809332        0.000190561521245
        0.343481574363710        0.000002442136246        0.000000418781588        0.000090890540663
        0.345900458690215       -0.000000251078795       -0.000000043015814       -0.000009277646062
        0.348319343016720       -0.000002980622183       -0.000000511120972       -0.000109375073342
        0.350738227343225       -0.000005753062327       -0.000000986500538       -0.000209638733338
        0.353157111669730       -0.000008558455867       -0.000001467610239       -0.000309708612646
        0.355575995996235       -0.000011397961352       -0.000001954486800       -0.000409626509979
        0.357994880322740       -0.000014267290143       -0.000002446557873       -0.000509245731861
        0.360413764649245       -0.000017162015318       -0.000002942900146       -0.000608411586520
        0.362832648975750       -0.000020083726063       -0.000003443951446       -0.000707192472547
        0.365251533302255       -0.000023022326252       -0.000003947814069       -0.000805239168687
        0.367670417628760       -0.000025985405876       -0.000004455957099       -0.000902833311009
        0.370089301955265       -0.000028957211681       -0.000004965510516       -0.000999436338408
        0.372508186281770       -0.000031951352400       -0.000005478977729       -0.001095537672764
        0.374927070608275       -0.000034946527820       -0.000005992535299       -0.001190417747942
        0.377345954934780       -0.000037962275197       -0.000006509705480       -0.001284764812885
        0.379764839261285       -0.000040971956191       -0.000007025747230       -0.001377689640265
        0.382183723587790       -0.000044000837004       -0.000007545167421       -0.001470066989231
        0.384602607914295       -0.000047017247449       -0.000008062359928       -0.001560852137433
        0.387021492240800       -0.000050051874513       -0.000008582763393       -0.001651090884758
        0.389440376567305       -0.000053068416898       -0.000009099975333       -0.001739599768200
        0.391859260893810       -0.000056102568399       -0.000009620295163       -0.001827577265003
        0.394278145220315       -0.000059113887018       -0.000010136608139       -0.001913720236316
        0.396697029546820       -0.000062142558350       -0.000010655986135       -0.001999358887085
        0.399115913873325       -0.000065144573274       -0.000011170700504       -0.002083091461109
        0.401534798199830       -0.000068163999879       -0.000011688491092       -0.002166356706587
        0.403953682526335       -0.000071153910497       -0.000012201126565       -0.002247676951639
        0.406372566852840       -0.000074161560739       -0.000012716895570       -0.002328574457965
        0.408791451179345       -0.000077137818255       -0.000013227186499       -0.002407519604447
        0.411210335505850       -0.000080132355918       -0.000013740704711       -0.002486091712248
        0.413629219832355       -0.000083094604751       -0.000014248590032       -0.002562734042207
        0.416048104158860       -0.000086075821350       -0.000014759821602       -0.002639055542140
        0.418466988485365       -0.000089024810014       -0.000015265429556       -0.002713497635888
        0.420885872811870       -0.000091993527679       -0.000015774515336       -0.002787670948894
        0.423304757138375       -0.000094930990306       -0.000016278143151       -0.002860040376045
        0.425723641464880       -0.000097888936608       -0.000016785379232       -0.002932190226991
        0.428142525791385       -0.000100817446891       -0.000017287468075       -0.003002633779030
        0.430561410117890       -0.000103767103528       -0.000017793279838       -0.003072901461381
        0.432980294444395       -0.000106689903409       -0.000018294385441       -0.003141579031034
        0.435399178770900       -0.000109634331256       -0.000018799297559       -0.003210116367482
        0.437818063097405       -0.000112555137254       -0.000019300057005       -0.003277194586548
        0.440236947423910       -0.000115497780749       -0.000019804659898       -0.003344157696082
        0.442655831750415       -0.000118420571298       -0.000020305755161       -0.003409803447823
        0.445074716076920       -0.000121365045651       -0.000020810668509       -0.003475346433371
        0.447493600403425       -0.000124293833275       -0.000021312787383       -0.003539720358139
        0.449912484729930       -0.000127243698357       -0.000021818621354       -0.003603989030638
        0.452331369056435       -0.000130182290887       -0.000022322416511       -0.003667239143848
        0.454750253382940       -0.000133140816042       -0.000022829731436       -0.003730364898351
        0.457169137709445       -0.000136092571383       -0.000023335778380       -0.003792620438403
        0.459588022035950       -0.000139062495644       -0.000023845043635       -0.003854714395595
        0.462006906362455       -0.000142030074851       -0.000024353798358       -0.003916080015773
        0.464425790688960       -0.000145013367279       -0.000024865351277       -0.003977227538076
        0.466844675015465       -0.000147998490826       -0.000025377108475       -0.004037777950928
        0.469263559341970       -0.000150996115759       -0.000025891114096       -0.004098033636320
        0.471682443668475       -0.000153999327970       -0.000026405966776       -0.004157808811629
