#           time (fs)    |     mu_x (e.angstrom)   |     mu_y (e.angstrom)   |     mu_z (e.angstrom)   |
        0.000000000000000       -0.000000000000000       -0.000000000000000        0.000000000000000
        0.002418884326505        0.000000008090628       -0.000000009525661        0.000078382592360
        0.004837768653010        0.000000032367336       -0.000000038108150        0.000156775148857
        0.007256652979515        0.000000072437778       -0.000000085285794        0.000233888310582
        0.009675537306020        0.000000142972697       -0.000000168330971        0.000346195486022
        0.012094421632525        0.000000235401129       -0.000000277153138        0.000455964495692
        0.014513305959030        0.000000393738780       -0.000000463574048        0.000635496628947
        0.016932190285535        0.000000586421369       -0.000000690431979        0.000811207918403
        0.019351074612040        0.000000900621138       -0.000001060359328        0.001090025085206
        0.021769958938545        0.000001267674105       -0.000001492514827        0.001363683345440
        0.024188843265050        0.000001830392901       -0.000002155039574        0.001771971401487
        0.026607727591555        0.000002470080496       -0.000002908185472        0.002173676299319
        0.029026611918060        0.000003395916328       -0.000003998231250        0.002739152246449
        0.031445496244565        0.000004427847079       -0.000005213190366        0.003296505096956
        0.033864380571070        0.000005849999571       -0.000006887581696        0.004043861716328
        0.036283264897575        0.000007411649693       -0.000008726213626        0.004781412067151
        0.038702149224080        0.000009477969181       -0.000011159024258        0.005731811227885
        0.041121033550585        0.000011720607573       -0.000013799427608        0.006670552767286
        0.043539917877090        0.000014589118810       -0.000017176710292        0.007841176132247
        0.045958802203595        0.000017673222278       -0.000020807824729        0.008998100634090
        0.048377686530100        0.000021507221582       -0.000025321838772        0.010401765649343
        0.050796570856605        0.000025597481535       -0.000030137566082        0.011789482818165
        0.053215455183110        0.000030560317181       -0.000035980631964        0.013434330894906
        0.055634339509615        0.000035820349724       -0.000042173607906        0.015060760979268
        0.058053223836120        0.000042070004174       -0.000049531728589        0.016950023665738
        0.060472108162625        0.000048656884002       -0.000057286887297        0.018818168578084
        0.062890992489130        0.000056340483020       -0.000066333283454        0.020950016287096
        0.065309876815635        0.000064399227568       -0.000075821363273        0.023057813717404
        0.067728761142140        0.000073647605114       -0.000086710074179        0.025425290239615
        0.070147645468645        0.000083305738812       -0.000098081217814        0.027765553896465
        0.072566529795150        0.000094228187694       -0.000110940920955        0.030356598511459
        0.074985414121655        0.000105590516823       -0.000124318523572        0.032917046190003
        0.077404298448160        0.000118269853400       -0.000139246723997        0.035714603711328
        0.079823182774665        0.000131413579776       -0.000154721680254        0.038477973398919
        0.082242067101170        0.000145901646397       -0.000171779415304        0.041460190983257
        0.084660951427675        0.000160871943044       -0.000189404910308        0.044404443698804
        0.087079835754180        0.000177185664512       -0.000208612106634        0.047544951743350
        0.089498720080685        0.000193991828533       -0.000228399086465        0.050643558296474
        0.091917604407190        0.000212109928807       -0.000249730694392        0.053911831273533
        0.094336488733695        0.000230722216080       -0.000271644139394        0.057134138655576
        0.096755373060200        0.000250582688816       -0.000295027154822        0.060495930320352
        0.099174257386705        0.000270929922070       -0.000318983263437        0.063807602032309
        0.101593141713210        0.000292428333751       -0.000344294730005        0.067225448118767
        0.104012026039715        0.000314396360305       -0.000370159102967        0.070588971430627
        0.106430910366220        0.000337385047912       -0.000397225167423        0.074022751748742
        0.108849794692725        0.000360816106189       -0.000424812061920        0.077398003697562
        0.111268679019230        0.000385104312999       -0.000453408133999        0.080805554487618
        0.113687563345735        0.000409797348277       -0.000482480835426        0.084150417381314
        0.116106447672240        0.000435152321800       -0.000512332880527        0.087488183887700
        0.118525331998745        0.000460864271857       -0.000542605216156        0.090759200207557
        0.120944216325250        0.000487013327623       -0.000573392185169        0.093982918721790
        0.123363100651755        0.000513461378473       -0.000604531179975        0.097135974624223
        0.125781984978260        0.000540094912714       -0.000635888556312        0.100201372726228
        0.128200869304765        0.000566959703917       -0.000667518206787        0.103192398843798
        0.130619753631270        0.000593735117678       -0.000699042626484        0.106055902248765
        0.133038637957775        0.000620664856145       -0.000730748744084        0.108841580188162
        0.135457522284280        0.000647211333331       -0.000762003621317        0.111461014486087
        0.137876406610785        0.000673826754630       -0.000793339673722        0.113999477318598
        0.140295290937290        0.000699750817488       -0.000823861741628        0.116334752973559
        0.142714175263795        0.000725650914715       -0.000854355597715        0.118586268109712
        0.145133059590300        0.000750542662513       -0.000883662253598        0.120600037361042
        0.147551943916805        0.000775311085274       -0.000912823717366        0.122527660490442
        0.149970828243310        0.000798751005932       -0.000940421042467        0.124185935260295
        0.152389712569815        0.000821963016184       -0.000967750042594        0.125756124512303
        0.154808596896320        0.000843529246619       -0.000993141350176        0.127028845063130
        0.157227481222825        0.000864759104391       -0.001018136635704        0.128212025193422
        0.159646365549330        0.000884035003645       -0.001040831387374        0.129073570081888
        0.162065249875835        0.000902863644289       -0.001062999566629        0.129844637301781
        0.164484134202340        0.000919445534322       -0.001082522486086        0.130274266128302
        0.166903018528845        0.000935468390127       -0.001101387235557        0.130613025153784
        0.169321902855350        0.000948973312798       -0.001117287441386        0.130595246693073
        0.171740787181855        0.000961808125765       -0.001132398704216        0.130486772683108
        0.174159671508360        0.000971881460965       -0.001144258679201        0.130011632183806
        0.176578555834865        0.000981175930475       -0.001155201669271        0.129446551445613
        0.178997440161370        0.000987498719873       -0.001162645883128        0.128509832187624
        0.181416324487875        0.000992937828856       -0.001169049710627        0.127484516832048
        0.183835208814380        0.000995233652281       -0.001171752716003        0.126087852409294
        0.186254093140885        0.000996546518537       -0.001173298453932        0.124604525522579
        0.188672977467390        0.000994587775591       -0.001170992282160        0.122755420755945
        0.191091861793895        0.000991553880960       -0.001167420300327        0.120822170094770
        0.193510746120400        0.000985167339078       -0.001159900993510        0.118533929953699
        0.195929630446905        0.000977621998246       -0.001151017397317        0.116164629646797
        0.198348514773410        0.000966693479911       -0.001138150526892        0.113456197046300
        0.200767399099915        0.000954532422627       -0.001123832552266        0.110670338276048
        0.203186283426420        0.000939010518681       -0.001105557590921        0.107566043096151
        0.205605167752925        0.000922193473853       -0.001085757824110        0.104388476214467
        0.208024052079430        0.000902092186587       -0.001062091257664        0.100917699338339
        0.210442936405935        0.000880645373932       -0.001036840568813        0.097378291319853
        0.212861820732440        0.000856045612634       -0.001007877657018        0.093575048882157
        0.215280705058945        0.000830063066968       -0.000977286759344        0.089708261410708
        0.217699589385450        0.000801112939490       -0.000943201879166        0.085610715766356
        0.220118473711955        0.000770756614042       -0.000907461450602        0.081455110565579
        0.222537358038460        0.000737670480434       -0.000868506981995        0.077105015708946
        0.224956242364965        0.000703169098381       -0.000827886313030        0.072702694941849
        0.227375126691470        0.000666225376199       -0.000784390054985        0.068144785206781
        0.229794011017975        0.000627872023497       -0.000739234214547        0.063540775861630
        0.232212895344480        0.000587409758717       -0.000691595347806        0.058822107693529
        0.234631779670985        0.000545558235837       -0.000642320887934        0.054063699824525
        0.237050663997490        0.000501972477816       -0.000591004529624        0.049232957219864
        0.239469548323995        0.000457032452684       -0.000538093778715        0.044369006703312
        0.241888432650500        0.000410768495877       -0.000483624202753        0.039475781543640
        0.244307316977005        0.000363199524674       -0.000427618225863        0.034555988628258
        0.246726201303510        0.000314746103330       -0.000370570850628        0.029650047582355
        0.249145085630015        0.000265050609324       -0.000312061183005        0.024724222943555
        0.251563969956520        0.000214932153665       -0.000253053454034        0.019854772863214
        0.253982854283025        0.000163647476455       -0.000192672740182        0.014972103106154
        0.256401738609530        0.000112415559386       -0.000132354059832        0.010187066891782
        0.258820622936035        0.000060105207346       -0.000070765754450        0.005395391480849
        0.261239507262540        0.000008329329141       -0.000009806632111        0.000740706240083
        0.263658391589045       -0.000044426414010        0.000052306059396       -0.003914182338881
        0.266077275915550       -0.000096168539803        0.000113225444332       -0.008395233371775
        0.268496160242055       -0.000148782487850        0.000175171189793       -0.012870254783939
        0.270915044568560       -0.000199914971181        0.000235372804870       -0.017137665652617
        0.273333928895065       -0.000251803208759        0.000296464123085       -0.021393071358915
        0.275752813221570       -0.000301762156793        0.000355284060956       -0.025410681938451
        0.278171697548075       -0.000352354325096        0.000414849431719       -0.029410619206836
        0.280590581874580       -0.000400597961020        0.000471649823667       -0.033146619645833
        0.283009466201085       -0.000449347462062        0.000529045701912       -0.036859630752361
        0.285428350527590       -0.000495365994640        0.000583226337911       -0.040286993615587
        0.287847234854095       -0.000541759918287        0.000637848841440       -0.043686442142919
        0.290266119180600       -0.000585084969032        0.000688858269373       -0.046783275275957
        0.292685003507105       -0.000628653548732        0.000740154311699       -0.049847692635626
        0.295103887833610       -0.000668866948570        0.000787500194229       -0.052597507097248
        0.297522772160115       -0.000709192357186        0.000834977840485       -0.055310853732339
        0.299941656486620       -0.000745934133055        0.000878236358191       -0.057702742554378
        0.302360540813125       -0.000782658439338        0.000921474192798       -0.060054579696285
        0.304779425139630       -0.000815633823323        0.000960298296478       -0.062083304708732
        0.307198309466135       -0.000848465942139        0.000998953606095       -0.064068874039638
        0.309617193792640       -0.000877451251149        0.001033079939288       -0.065734859514218
        0.312036078119145       -0.000906172736448        0.001066895533259       -0.067355069599858
        0.314454962445650       -0.000931019988890        0.001096149867740       -0.068664302992327
        0.316873846772155       -0.000955489537283        0.001124959380444       -0.069925622872021
        0.319292731098660       -0.000976129694327        0.001149260432377       -0.070889464457032
        0.321711615425165       -0.000996286248680        0.001172991977293       -0.071803726285568
        0.324130499751670       -0.001012730991241        0.001192353499382       -0.072438630954587
        0.326549384078175       -0.001028595357563        0.001211031572759       -0.073022745060584
        0.328968268404680       -0.001040937335608        0.001225562647767       -0.073349900971657
        0.331387152731185       -0.001052612252380        0.001239308210256       -0.073625488108818
        0.333806037057690       -0.001061023770251        0.001249211703153       -0.073670378217574
        0.336224921384195       -0.001068692396731        0.001258240399986       -0.073663325119835
        0.338643805710700       -0.001073422526427        0.001263809559224       -0.073455218866622
        0.341062690037205       -0.001077345345031        0.001268428073195       -0.073195164458880
        0.343481574363710       -0.001078715488371        0.001270041305761       -0.072766548022087
        0.345900458690215       -0.001079225645543        0.001270641871730       -0.072286308769487
        0.348319343016720       -0.001077623595463        0.001268755751123       -0.071672263305992
        0.350738227343225       -0.001075120735008        0.001265808895604       -0.071007207192921
        0.353157111669730       -0.001070993315359        0.001260949496199       -0.070244745360588
        0.355575995996235       -0.001065935987655        0.001254995100235       -0.069432124862305
        0.357994880322740       -0.001059780379453        0.001247747785121       -0.068559496644864
        0.360413764649245       -0.001052677138694        0.001239384602490       -0.067637751777742
        0.362832648975750       -0.001045031028174        0.001230382424140       -0.066693731197730
        0.365251533302255       -0.001036430357427        0.001220256219477       -0.065701774296290
        0.367670417628760       -0.001027861067087        0.001210167123033       -0.064724938996402
        0.370089301955265       -0.001018340296849        0.001198957624928       -0.063701433254871
        0.372508186281770       -0.001009433084366        0.001188470671760       -0.062729449141631
        0.374927070608275       -0.000999586494011        0.001176877563819       -0.061712093163492
        0.377345954934780       -0.000990932224880        0.001166688417742       -0.060781016330143
        0.379764839261285       -0.000981358537282        0.001155416615199       -0.059805846940969
        0.382183723587790       -0.000973540954861        0.001146212554670       -0.058949454910849
        0.384602607914295       -0.000964830452046        0.001135957034811       -0.058050180298962
        0.387021492240800       -0.000958413282711        0.001128401771018       -0.057299344250503
        0.389440376567305       -0.000951134784096        0.001119832241809       -0.056506719100795
        0.391859260893810       -0.000946648925091        0.001114550834091       -0.055888828147646
        0.394278145220315       -0.000941336879193        0.001108296536419       -0.055230081823655
        0.396697029546820       -0.000939267921921        0.001105860702651       -0.054768529629490
        0.399115913873325       -0.000936409867028        0.001102495646950       -0.054266857639356
        0.401534798199830       -0.000937186208801        0.001103409766739       -0.053980600652428
        0.403953682526335       -0.000937210857544        0.001103438704189       -0.053654728612584
        0.406372566852840       -0.000941192649822        0.001108126806928       -0.053557924021382
        0.408791451179345       -0.000944458846812        0.001111972228560       -0.053421752120673
        0.411210335505850       -0.000951928017686        0.001120766246263       -0.053523482276269
        0.413629219832355       -0.000958714808191        0.001128756690170       -0.053585816861152
        0.416048104158860       -0.000969866381357        0.001141886236739       -0.053889905406939
        0.418466988485365       -0.000980364412572        0.001154246164230       -0.054154282780397
        0.420885872811870       -0.000995299324444        0.001171830078582       -0.054659206104597
        0.423304757138375       -0.001009603779394        0.001188671554813       -0.055123811987273
        0.425723641464880       -0.001028323370756        0.001210711415549       -0.055822707900896
        0.428142525791385       -0.001046428608783        0.001232027799416       -0.056480394277308
        0.430561410117890       -0.001068830937870        0.001258403583975       -0.057361168057350
        0.432980294444395       -0.001090626985392        0.001284065396456       -0.058199567360680
        0.435399178770900       -0.001116505076261        0.001314533418805       -0.059245093523523
        0.437818063097405       -0.001141776077788        0.001344286519246       -0.060246828338465
        0.440236947423910       -0.001170818181914        0.001378479737878       -0.061435244763647
        0.442655831750415       -0.001199242884927        0.001411945894869       -0.062578229488863
        0.445074716076920       -0.001231034796041        0.001449376638198       -0.063883318833685
        0.447493600403425       -0.001262189104996        0.001486056536570       -0.065141148079863
        0.449912484729930       -0.001296218527982        0.001526121646724       -0.066532799850678
        0.452331369056435       -0.001329580123358        0.001565400325854       -0.067875216793933
        0.454750253382940       -0.001365243058590        0.001607388675350       -0.069319962000351
        0.457169137709445       -0.001400198037291        0.001648543347344       -0.070713398493765
        0.459588022035950       -0.001436807102709        0.001691645637206       -0.072175007535797
        0.462006906362455       -0.001472658557190        0.001733855787655       -0.073583186530450
        0.464425790688960       -0.001509453132704        0.001777176491066       -0.075023319877473
        0.466844675015465       -0.001545431548515        0.001819536120757       -0.076407909638761
        0.469263559341970       -0.001581589591529        0.001862107394233       -0.077786809969290
        0.471682443668475       -0.001616864907448        0.001903639218320       -0.079108118709277
