#     time (fs)  |  E_x (eV/ang)  | E_y (eV/ang) | E_z (eV/ang)
     0.00000000     0.00000000     0.00000000     0.00000000
     0.00241888     0.02394830     0.00000000     0.02394830
     0.00483777     0.04788631     0.00000000     0.04788631
     0.00725665     0.07180377     0.00000000     0.07180377
     0.00967554     0.09569041     0.00000000     0.09569041
     0.01209442     0.11953598     0.00000000     0.11953598
     0.01451331     0.14333023     0.00000000     0.14333023
     0.01693219     0.16706297     0.00000000     0.16706297
     0.01935107     0.19072399     0.00000000     0.19072399
     0.02176996     0.21430314     0.00000000     0.21430314
     0.02418884     0.23779031     0.00000000     0.23779031
     0.02660773     0.26117540     0.00000000     0.26117540
     0.02902661     0.28444839     0.00000000     0.28444839
     0.03144550     0.30759928     0.00000000     0.30759928
     0.03386438     0.33061814     0.00000000     0.33061814
     0.03628326     0.35349508     0.00000000     0.35349508
     0.03870215     0.37622028     0.00000000     0.37622028
     0.04112103     0.39878400     0.00000000     0.39878400
     0.04353992     0.42117654     0.00000000     0.42117654
     0.04595880     0.44338829     0.00000000     0.44338829
     0.04837769     0.46540972     0.00000000     0.46540972
     0.05079657     0.48723137     0.00000000     0.48723137
     0.05321546     0.50884389     0.00000000     0.50884389
     0.05563434     0.53023799     0.00000000     0.53023799
     0.05805322     0.55140448     0.00000000     0.55140448
     0.06047211     0.57233429     0.00000000     0.57233429
     0.06289099     0.59301843     0.00000000     0.59301843
     0.06530988     0.61344802     0.00000000     0.61344802
     0.06772876     0.63361429     0.00000000     0.63361429
     0.07014765     0.65350859     0.00000000     0.65350859
     0.07256653     0.67312237     0.00000000     0.67312237
     0.07498541     0.69244722     0.00000000     0.69244722
     0.07740430     0.71147484     0.00000000     0.71147484
     0.07982318     0.73019706     0.00000000     0.73019706
     0.08224207     0.74860586     0.00000000     0.74860586
     0.08466095     0.76669331     0.00000000     0.76669331
     0.08707984     0.78445167     0.00000000     0.78445167
     0.08949872     0.80187331     0.00000000     0.80187331
     0.09191760     0.81895075     0.00000000     0.81895075
     0.09433649     0.83567666     0.00000000     0.83567666
     0.09675537     0.85204387     0.00000000     0.85204387
     0.09917426     0.86804533     0.00000000     0.86804533
     0.10159314     0.88367420     0.00000000     0.88367420
     0.10401203     0.89892375     0.00000000     0.89892375
     0.10643091     0.91378745     0.00000000     0.91378745
     0.10884979     0.92825891     0.00000000     0.92825891
     0.11126868     0.94233192     0.00000000     0.94233192
     0.11368756     0.95600044     0.00000000     0.95600044
     0.11610645     0.96925861     0.00000000     0.96925861
     0.11852533     0.98210072     0.00000000     0.98210072
     0.12094422     0.99452128     0.00000000     0.99452128
     0.12336310     1.00651494     0.00000000     1.00651494
     0.12578198     1.01807656     0.00000000     1.01807656
     0.12820087     1.02920119     0.00000000     1.02920119
     0.13061975     1.03988403     0.00000000     1.03988403
     0.13303864     1.05012051     0.00000000     1.05012051
     0.13545752     1.05990623     0.00000000     1.05990623
     0.13787641     1.06923700     0.00000000     1.06923700
     0.14029529     1.07810880     0.00000000     1.07810880
     0.14271418     1.08651783     0.00000000     1.08651783
     0.14513306     1.09446048     0.00000000     1.09446048
     0.14755194     1.10193334     0.00000000     1.10193334
     0.14997083     1.10893320     0.00000000     1.10893320
     0.15238971     1.11545706     0.00000000     1.11545706
     0.15480860     1.12150212     0.00000000     1.12150212
     0.15722748     1.12706578     0.00000000     1.12706578
     0.15964637     1.13214566     0.00000000     1.13214566
     0.16206525     1.13673957     0.00000000     1.13673957
     0.16448413     1.14084554     0.00000000     1.14084554
     0.16690302     1.14446181     0.00000000     1.14446181
     0.16932190     1.14758682     0.00000000     1.14758682
     0.17174079     1.15021925     0.00000000     1.15021925
     0.17415967     1.15235795     0.00000000     1.15235795
     0.17657856     1.15400200     0.00000000     1.15400200
     0.17899744     1.15515071     0.00000000     1.15515071
     0.18141632     1.15580358     0.00000000     1.15580358
     0.18383521     1.15596033     0.00000000     1.15596033
     0.18625409     1.15562089     0.00000000     1.15562089
     0.18867298     1.15478541     0.00000000     1.15478541
     0.19109186     1.15345424     0.00000000     1.15345424
     0.19351075     1.15162796     0.00000000     1.15162796
     0.19592963     1.14930735     0.00000000     1.14930735
     0.19834851     1.14649341     0.00000000     1.14649341
     0.20076740     1.14318734     0.00000000     1.14318734
     0.20318628     1.13939057     0.00000000     1.13939057
     0.20560517     1.13510472     0.00000000     1.13510472
     0.20802405     1.13033164     0.00000000     1.13033164
     0.21044294     1.12507337     0.00000000     1.12507337
     0.21286182     1.11933216     0.00000000     1.11933216
     0.21528071     1.11311050     0.00000000     1.11311050
     0.21769959     1.10641103     0.00000000     1.10641103
     0.22011847     1.09923665     0.00000000     1.09923665
     0.22253736     1.09159043     0.00000000     1.09159043
     0.22495624     1.08347565     0.00000000     1.08347565
     0.22737513     1.07489579     0.00000000     1.07489579
     0.22979401     1.06585454     0.00000000     1.06585454
     0.23221290     1.05635578     0.00000000     1.05635578
     0.23463178     1.04640359     0.00000000     1.04640359
     0.23705066     1.03600224     0.00000000     1.03600224
     0.23946955     1.02515618     0.00000000     1.02515618
     0.24188843     1.01387009     0.00000000     1.01387009
     0.24430732     1.00214880     0.00000000     1.00214880
     0.24672620     0.98999734     0.00000000     0.98999734
     0.24914509     0.97742094     0.00000000     0.97742094
     0.25156397     0.96442498     0.00000000     0.96442498
     0.25398285     0.95101505     0.00000000     0.95101505
     0.25640174     0.93719690     0.00000000     0.93719690
     0.25882062     0.92297647     0.00000000     0.92297647
     0.26123951     0.90835986     0.00000000     0.90835986
     0.26365839     0.89335333     0.00000000     0.89335333
     0.26607728     0.87796335     0.00000000     0.87796335
     0.26849616     0.86219650     0.00000000     0.86219650
     0.27091504     0.84605956     0.00000000     0.84605956
     0.27333393     0.82955945     0.00000000     0.82955945
     0.27575281     0.81270326     0.00000000     0.81270326
     0.27817170     0.79549823     0.00000000     0.79549823
     0.28059058     0.77795173     0.00000000     0.77795173
     0.28300947     0.76007130     0.00000000     0.76007130
     0.28542835     0.74186461     0.00000000     0.74186461
     0.28784723     0.72333949     0.00000000     0.72333949
     0.29026612     0.70450387     0.00000000     0.70450387
     0.29268500     0.68536585     0.00000000     0.68536585
     0.29510389     0.66593365     0.00000000     0.66593365
     0.29752277     0.64621559     0.00000000     0.64621559
     0.29994166     0.62622015     0.00000000     0.62622015
     0.30236054     0.60595592     0.00000000     0.60595592
     0.30477943     0.58543157     0.00000000     0.58543157
     0.30719831     0.56465594     0.00000000     0.56465594
     0.30961719     0.54363793     0.00000000     0.54363793
     0.31203608     0.52238657     0.00000000     0.52238657
     0.31445496     0.50091098     0.00000000     0.50091098
     0.31687385     0.47922037     0.00000000     0.47922037
     0.31929273     0.45732406     0.00000000     0.45732406
     0.32171162     0.43523145     0.00000000     0.43523145
     0.32413050     0.41295202     0.00000000     0.41295202
     0.32654938     0.39049533     0.00000000     0.39049533
     0.32896827     0.36787102     0.00000000     0.36787102
     0.33138715     0.34508881     0.00000000     0.34508881
     0.33380604     0.32215847     0.00000000     0.32215847
     0.33622492     0.29908985     0.00000000     0.29908985
     0.33864381     0.27589284     0.00000000     0.27589284
     0.34106269     0.25257741     0.00000000     0.25257741
     0.34348157     0.22915356     0.00000000     0.22915356
     0.34590046     0.20563135     0.00000000     0.20563135
     0.34831934     0.18202087     0.00000000     0.18202087
     0.35073823     0.15833226     0.00000000     0.15833226
     0.35315711     0.13457569     0.00000000     0.13457569
     0.35557600     0.11076135     0.00000000     0.11076135
     0.35799488     0.08689947     0.00000000     0.08689947
     0.36041376     0.06300029     0.00000000     0.06300029
     0.36283265     0.03907407     0.00000000     0.03907407
     0.36525153     0.01513107     0.00000000     0.01513107
     0.36767042    -0.00881842    -0.00000000    -0.00881842
     0.37008930    -0.03276413    -0.00000000    -0.03276413
     0.37250819    -0.05669577    -0.00000000    -0.05669577
     0.37492707    -0.08060308    -0.00000000    -0.08060308
     0.37734595    -0.10447578    -0.00000000    -0.10447578
     0.37976484    -0.12830365    -0.00000000    -0.12830365
     0.38218372    -0.15207644    -0.00000000    -0.15207644
     0.38460261    -0.17578395    -0.00000000    -0.17578395
     0.38702149    -0.19941600    -0.00000000    -0.19941600
     0.38944038    -0.22296246    -0.00000000    -0.22296246
     0.39185926    -0.24641322    -0.00000000    -0.24641322
     0.39427815    -0.26975820    -0.00000000    -0.26975820
     0.39669703    -0.29298739    -0.00000000    -0.29298739
     0.39911591    -0.31609082    -0.00000000    -0.31609082
     0.40153480    -0.33905856    -0.00000000    -0.33905856
     0.40395368    -0.36188077    -0.00000000    -0.36188077
     0.40637257    -0.38454765    -0.00000000    -0.38454765
     0.40879145    -0.40704946    -0.00000000    -0.40704946
     0.41121034    -0.42937654    -0.00000000    -0.42937654
     0.41362922    -0.45151932    -0.00000000    -0.45151932
     0.41604810    -0.47346829    -0.00000000    -0.47346829
     0.41846699    -0.49521403    -0.00000000    -0.49521403
     0.42088587    -0.51674719    -0.00000000    -0.51674719
     0.42330476    -0.53805855    -0.00000000    -0.53805855
     0.42572364    -0.55913895    -0.00000000    -0.55913895
     0.42814253    -0.57997934    -0.00000000    -0.57997934
     0.43056141    -0.60057078    -0.00000000    -0.60057078
     0.43298029    -0.62090443    -0.00000000    -0.62090443
     0.43539918    -0.64097156    -0.00000000    -0.64097156
     0.43781806    -0.66076355    -0.00000000    -0.66076355
     0.44023695    -0.68027192    -0.00000000    -0.68027192
     0.44265583    -0.69948829    -0.00000000    -0.69948829
     0.44507472    -0.71840440    -0.00000000    -0.71840440
     0.44749360    -0.73701215    -0.00000000    -0.73701215
     0.44991248    -0.75530353    -0.00000000    -0.75530353
     0.45233137    -0.77327071    -0.00000000    -0.77327071
     0.45475025    -0.79090597    -0.00000000    -0.79090597
     0.45716914    -0.80820173    -0.00000000    -0.80820173
     0.45958802    -0.82515058    -0.00000000    -0.82515058
     0.46200691    -0.84174524    -0.00000000    -0.84174524
     0.46442579    -0.85797859    -0.00000000    -0.85797859
     0.46684468    -0.87384365    -0.00000000    -0.87384365
     0.46926356    -0.88933363    -0.00000000    -0.88933363
     0.47168244    -0.90444186    -0.00000000    -0.90444186
     0.47410133    -0.91916187    -0.00000000    -0.91916187
     0.47652021    -0.93348733    -0.00000000    -0.93348733
     0.47893910    -0.94741210    -0.00000000    -0.94741210
     0.48135798    -0.96093020    -0.00000000    -0.96093020
     0.48377687    -0.97403582    -0.00000000    -0.97403582
     0.48619575    -0.98672335    -0.00000000    -0.98672335
     0.48861463    -0.99898733    -0.00000000    -0.99898733
     0.49103352    -1.01082251    -0.00000000    -1.01082251
     0.49345240    -1.02222379    -0.00000000    -1.02222379
     0.49587129    -1.03318629    -0.00000000    -1.03318629
     0.49829017    -1.04370531    -0.00000000    -1.04370531
     0.50070906    -1.05377632    -0.00000000    -1.05377632
     0.50312794    -1.06339500    -0.00000000    -1.06339500
     0.50554682    -1.07255723    -0.00000000    -1.07255723
     0.50796571    -1.08125907    -0.00000000    -1.08125907
     0.51038459    -1.08949678    -0.00000000    -1.08949678
     0.51280348    -1.09726684    -0.00000000    -1.09726684
     0.51522236    -1.10456590    -0.00000000    -1.10456590
     0.51764125    -1.11139084    -0.00000000    -1.11139084
     0.52006013    -1.11773872    -0.00000000    -1.11773872
     0.52247901    -1.12360681    -0.00000000    -1.12360681
     0.52489790    -1.12899261    -0.00000000    -1.12899261
     0.52731678    -1.13389379    -0.00000000    -1.13389379
     0.52973567    -1.13830826    -0.00000000    -1.13830826
     0.53215455    -1.14223411    -0.00000000    -1.14223411
     0.53457344    -1.14566967    -0.00000000    -1.14566967
     0.53699232    -1.14861346    -0.00000000    -1.14861346
     0.53941120    -1.15106421    -0.00000000    -1.15106421
     0.54183009    -1.15302087    -0.00000000    -1.15302087
     0.54424897    -1.15448261    -0.00000000    -1.15448261
     0.54666786    -1.15544880    -0.00000000    -1.15544880
     0.54908674    -1.15591901    -0.00000000    -1.15591901
     0.55150563    -1.15589306     0.00000000    -1.15589306
     0.55392451    -1.15537094     0.00000000    -1.15537094
     0.55634340    -1.15435289     0.00000000    -1.15435289
     0.55876228    -1.15283935     0.00000000    -1.15283935
     0.56118116    -1.15083095     0.00000000    -1.15083095
     0.56360005    -1.14832856     0.00000000    -1.14832856
     0.56601893    -1.14533327     0.00000000    -1.14533327
     0.56843782    -1.14184635     0.00000000    -1.14184635
     0.57085670    -1.13786929     0.00000000    -1.13786929
     0.57327559    -1.13340382     0.00000000    -1.13340382
     0.57569447    -1.12845184     0.00000000    -1.12845184
     0.57811335    -1.12301547     0.00000000    -1.12301547
     0.58053224    -1.11709706     0.00000000    -1.11709706
     0.58295112    -1.11069915     0.00000000    -1.11069915
     0.58537001    -1.10382447     0.00000000    -1.10382447
     0.58778889    -1.09647599     0.00000000    -1.09647599
     0.59020778    -1.08865685     0.00000000    -1.08865685
     0.59262666    -1.08037041     0.00000000    -1.08037041
     0.59504554    -1.07162022     0.00000000    -1.07162022
     0.59746443    -1.06241006     0.00000000    -1.06241006
     0.59988331    -1.05274386     0.00000000    -1.05274386
     0.60230220    -1.04262577     0.00000000    -1.04262577
     0.60472108    -1.03206015     0.00000000    -1.03206015
     0.60713997    -1.02105152     0.00000000    -1.02105152
     0.60955885    -1.00960461     0.00000000    -1.00960461
     0.61197773    -0.99772434     0.00000000    -0.99772434
     0.61439662    -0.98541580     0.00000000    -0.98541580
     0.61681550    -0.97268427     0.00000000    -0.97268427
     0.61923439    -0.95953523     0.00000000    -0.95953523
     0.62165327    -0.94597431     0.00000000    -0.94597431
     0.62407216    -0.93200734     0.00000000    -0.93200734
     0.62649104    -0.91764032     0.00000000    -0.91764032
     0.62890992    -0.90287940     0.00000000    -0.90287940
     0.63132881    -0.88773092     0.00000000    -0.88773092
     0.63374769    -0.87220140     0.00000000    -0.87220140
     0.63616658    -0.85629748     0.00000000    -0.85629748
     0.63858546    -0.84002601     0.00000000    -0.84002601
     0.64100435    -0.82339396     0.00000000    -0.82339396
     0.64342323    -0.80640847     0.00000000    -0.80640847
     0.64584212    -0.78907684     0.00000000    -0.78907684
     0.64826100    -0.77140651     0.00000000    -0.77140651
     0.65067988    -0.75340505     0.00000000    -0.75340505
     0.65309877    -0.73508019     0.00000000    -0.73508019
     0.65551765    -0.71643981     0.00000000    -0.71643981
     0.65793654    -0.69749190     0.00000000    -0.69749190
     0.66035542    -0.67824460     0.00000000    -0.67824460
     0.66277431    -0.65870617     0.00000000    -0.65870617
     0.66519319    -0.63888499     0.00000000    -0.63888499
     0.66761207    -0.61878957     0.00000000    -0.61878957
     0.67003096    -0.59842855     0.00000000    -0.59842855
     0.67244984    -0.57781065     0.00000000    -0.57781065
     0.67486873    -0.55694473     0.00000000    -0.55694473
     0.67728761    -0.53583974     0.00000000    -0.53583974
     0.67970650    -0.51450475     0.00000000    -0.51450475
     0.68212538    -0.49294891     0.00000000    -0.49294891
     0.68454426    -0.47118147     0.00000000    -0.47118147
     0.68696315    -0.44921179     0.00000000    -0.44921179
     0.68938203    -0.42704928     0.00000000    -0.42704928
     0.69180092    -0.40470347     0.00000000    -0.40470347
     0.69421980    -0.38218394     0.00000000    -0.38218394
     0.69663869    -0.35950035     0.00000000    -0.35950035
     0.69905757    -0.33666246     0.00000000    -0.33666246
     0.70147645    -0.31368006     0.00000000    -0.31368006
     0.70389534    -0.29056301     0.00000000    -0.29056301
     0.70631422    -0.26732123     0.00000000    -0.26732123
     0.70873311    -0.24396472     0.00000000    -0.24396472
     0.71115199    -0.22050348     0.00000000    -0.22050348
     0.71357088    -0.19694759     0.00000000    -0.19694759
     0.71598976    -0.17330716     0.00000000    -0.17330716
     0.71840864    -0.14959235     0.00000000    -0.14959235
     0.72082753    -0.12581332     0.00000000    -0.12581332
     0.72324641    -0.10198028     0.00000000    -0.10198028
     0.72566530    -0.07810348     0.00000000    -0.07810348
     0.72808418    -0.05419314     0.00000000    -0.05419314
     0.73050307    -0.03025955     0.00000000    -0.03025955
     0.73292195    -0.00631297     0.00000000    -0.00631297
     0.73534084     0.01763633     0.00000000     0.01763633
     0.73775972     0.04157805     0.00000000     0.04157805
     0.74017860     0.06550193     0.00000000     0.06550193
     0.74259749     0.08939769     0.00000000     0.08939769
     0.74501637     0.11325507     0.00000000     0.11325507
     0.74743526     0.13706385     0.00000000     0.13706385
     0.74985414     0.16081379     0.00000000     0.16081379
     0.75227303     0.18449470     0.00000000     0.18449470
     0.75469191     0.20809641     0.00000000     0.20809641
     0.75711079     0.23160881     0.00000000     0.23160881
     0.75952968     0.25502178     0.00000000     0.25502178
     0.76194856     0.27832529     0.00000000     0.27832529
     0.76436745     0.30150934     0.00000000     0.30150934
     0.76678633     0.32456396     0.00000000     0.32456396
     0.76920522     0.34747926     0.00000000     0.34747926
     0.77162410     0.37024541     0.00000000     0.37024541
     0.77404298     0.39285263     0.00000000     0.39285263
     0.77646187     0.41529123     0.00000000     0.41529123
     0.77888075     0.43755156     0.00000000     0.43755156
     0.78129964     0.45962408     0.00000000     0.45962408
     0.78371852     0.48149931     0.00000000     0.48149931
     0.78613741     0.50316786     0.00000000     0.50316786
