#           time (fs)    |     mu_x (e.angstrom)   |     mu_y (e.angstrom)   |     mu_z (e.angstrom)   |
        0.000000000000000       -0.000000000000000       -0.000000000000000        0.000000000000000
        0.002418884326505       -0.000000003866893        0.000000001380737       -0.000020529098809
        0.004837768653010       -0.000000015457740        0.000000005520773       -0.000041039245504
        0.007256652979515       -0.000000034583862        0.000000012350716       -0.000061227994551
        0.009675537306020       -0.000000047304461        0.000000016894916       -0.000062825331691
        0.012094421632525       -0.000000060029606        0.000000021438065       -0.000063797282476
        0.014513305959030       -0.000000031523457        0.000000011258697       -0.000027924436479
        0.016932190285535        0.000000011628863       -0.000000004155608        0.000008830356821
        0.019351074612040        0.000000150529614       -0.000000053762016        0.000100056002797
        0.021769958938545        0.000000325485284       -0.000000116250914        0.000192354085936
        0.024188843265050        0.000000668830878       -0.000000238874634        0.000355825063542
        0.026607727591555        0.000001075894944       -0.000000384262348        0.000520476013384
        0.029026611918060        0.000001740024703       -0.000000621454235        0.000771797458938
        0.031445496244565        0.000002501158148       -0.000000893299446        0.001024308577773
        0.033864380571070        0.000003621504734       -0.000001293429533        0.001377523580230
        0.036283264897575        0.000004877012289       -0.000001741842371        0.001731827452542
        0.038702149224080        0.000006604377917       -0.000002358769823        0.002199169297732
        0.041121033550585        0.000008509083155       -0.000003039045678        0.002667378405427
        0.043539917877090        0.000011005473036       -0.000003930630542        0.003259053491144
        0.045958802203595        0.000013724467572       -0.000004901731675        0.003851245618477
        0.048377686530100        0.000017158574924       -0.000006128222069        0.004575250296791
        0.050796570856605        0.000020862637279       -0.000007451141109        0.005299287937256
        0.053215455183110        0.000025405081296       -0.000009073472043        0.006161261975675
        0.055634339509615        0.000030265867700       -0.000010809513884        0.007022648388113
        0.058053223836120        0.000036084290836       -0.000012887555660        0.008025767138738
        0.060472108162625        0.000042269404849       -0.000015096575880        0.009027541097684
        0.062890992489130        0.000049523538495       -0.000017687371015        0.010172447832764
        0.065309876815635        0.000057191588705       -0.000020426009847        0.011315118488147
        0.067728761142140        0.000066028396854       -0.000023582037650        0.012599897711374
        0.070147645468645        0.000075324152055       -0.000026901988566        0.013881420325089
        0.072566529795150        0.000085873160781       -0.000030669495902        0.015301612210952
        0.074985414121655        0.000096922909938       -0.000034615847174        0.016717404882981
        0.077404298448160        0.000109291826596       -0.000039033282565        0.018266060342119
        0.079823182774665        0.000122199046617       -0.000043642968639        0.019809061187345
        0.082242067101170        0.000136469766584       -0.000048739554692        0.021476836414648
        0.084660951427675        0.000151311194586       -0.000054039951986        0.023137600013948
        0.087079835754180        0.000167536285382       -0.000059834428335        0.024912888758645
        0.089498720080685        0.000184358483816       -0.000065842127122        0.026679720094626
        0.091917604407190        0.000202558226604       -0.000072341692560        0.028548821307755
        0.094336488733695        0.000221374719573       -0.000079061473027        0.030407944816606
        0.096755373060200        0.000241534776666       -0.000086260951465        0.032355262790547
        0.099174257386705        0.000262323824147       -0.000093684987910        0.034291023626195
        0.101593141713210        0.000284393588406       -0.000101566238258        0.036299297251925
        0.104012026039715        0.000307096652232       -0.000109673550797        0.038294391375574
        0.106430910366220        0.000330988320440       -0.000118205135924        0.040344948713643
        0.108849794692725        0.000355509261948       -0.000126961304090        0.042380677998197
        0.111268679019230        0.000381097659665       -0.000136098428820        0.044453711995535
        0.113687563345735        0.000407302694267       -0.000145455576187        0.046510260176699
        0.116106447672240        0.000434425864568       -0.000155140298845        0.048585121068477
        0.118525331998745        0.000462144283396       -0.000165037352399        0.050641846087534
        0.120944216325250        0.000490604836645       -0.000175199068966        0.052697345805193
        0.123363100651755        0.000519630490164       -0.000185562291436        0.054733083876126
        0.125781984978260        0.000549197696801       -0.000196118485902        0.056747807641872
        0.128200869304765        0.000579291220171       -0.000206862273847        0.058741184240059
        0.130619753631270        0.000609703813728       -0.000217719523014        0.060693804465552
        0.133038637957775        0.000640595559028       -0.000228747458152        0.062623547377474
        0.135457522284280        0.000671565202518       -0.000239802674089        0.064493134999884
        0.137876406610785        0.000702958828992       -0.000251008810329        0.066338384592800
        0.140295290937290        0.000734174184647       -0.000262150698899        0.068104713073109
        0.142714175263795        0.000765750845116       -0.000273421062822        0.069845325038746
        0.145133059590300        0.000796882175495       -0.000284531772402        0.071489162412420
        0.147551943916805        0.000828305225299       -0.000295746050690        0.073105998406435
        0.149970828243310        0.000859009443193       -0.000306702981351        0.074609383011287
        0.152389712569815        0.000889929587621       -0.000317736364914        0.076084584846690
        0.154808596896320        0.000919855663169       -0.000328414105101        0.077431080652026
        0.157227481222825        0.000949916450519       -0.000339139256439        0.078748324004993
        0.159646365549330        0.000978711076645       -0.000349411611542        0.079923251824459
        0.162065249875835        0.001007554636978       -0.000359700719385        0.081067975768443
        0.164484134202340        0.001034868048784       -0.000369442794645        0.082058617046722
        0.166903018528845        0.001062140973191       -0.000379169677993        0.083018226140668
        0.169321902855350        0.001087632813473       -0.000388259976936        0.083813996464298
        0.171740787181855        0.001112992065400       -0.000397302199503        0.084578032575273
        0.174159671508360        0.001136337186833       -0.000405624698576        0.085170622544252
        0.176578555834865        0.001159455935632       -0.000413865654161        0.085730904072944
        0.178997440161370        0.001180350030653       -0.000421311814424        0.086114385694163
        0.181416324487875        0.001200923298261       -0.000428642744053        0.086465112392067
        0.183835208814380        0.001219088250136       -0.000435113421735        0.086636009697051
        0.186254093140885        0.001236838264382       -0.000441435324408        0.086773831803122
        0.188672977467390        0.001252027117298       -0.000446842543755        0.086731154947097
        0.191091861793895        0.001266708270001       -0.000452067944364        0.086655205923037
        0.193510746120400        0.001278709722279       -0.000456336498515        0.086400448580897
        0.195929630446905        0.001290113036686       -0.000460391038849        0.086112341279459
        0.198348514773410        0.001298755369227       -0.000463459887411        0.085649441708465
        0.200767399099915        0.001306712389573       -0.000466283709214        0.085153228359895
        0.203186283426420        0.001311866751239       -0.000468107144720        0.084488495040837
        0.205605167752925        0.001316252776992       -0.000469656037297        0.083790591980854
        0.208024052079430        0.001317835759720       -0.000470204596761        0.082932595271118
        0.210442936405935        0.001318572358309       -0.000470450885746        0.082041673851991
        0.212861820732440        0.001316547807074       -0.000469711987993        0.081001105578183
        0.215280705058945        0.001313604551386       -0.000468645146387        0.079927951195107
        0.217699589385450        0.001307984567514       -0.000466623440670        0.078717454572769
        0.220118473711955        0.001301379957949       -0.000464250408140        0.077474796194162
        0.222537358038460        0.001292225068503       -0.000460967824672        0.076108768881256
        0.224956242364965        0.001282026613690       -0.000457313026245        0.074711081887524
        0.227375126691470        0.001269445094408       -0.000452808524546        0.073205455351299
        0.229794011017975        0.001255768539555       -0.000447913585146        0.071668740856425
        0.232212895344480        0.001239914893939       -0.000442242601538        0.070040739554963
        0.234631779670985        0.001222922600953       -0.000436165758221        0.068382283704133
        0.237050663997490        0.001203995213235       -0.000429399359156        0.066650167850225
        0.239469548323995        0.001183893711913       -0.000422214578309        0.064888284850410
        0.241888432650500        0.001162131706593       -0.000414438331549        0.063071080733041
        0.244307316977005        0.001139168451147       -0.000406234143600        0.061224843578755
        0.246726201303510        0.001114847806205       -0.000397546724345        0.059342065563931
        0.249145085630015        0.001089307185806       -0.000388424793644        0.057431028564729
        0.251563969956520        0.001062736160432       -0.000378936347576        0.055502396981018
        0.253982854283025        0.001034934826123       -0.000369009799913        0.053546314279106
        0.256401738609530        0.001006448776499       -0.000358840089561        0.051591473413391
        0.258820622936035        0.000976730359458       -0.000348231624229        0.049610017698316
        0.261239507262540        0.000946686027610       -0.000337507989102        0.047648258084097
        0.263658391589045        0.000915415335132       -0.000326347806421        0.045660743667049
        0.266077275915550        0.000884184705917       -0.000315202970866        0.043710732742289
        0.268496160242055        0.000851741491409       -0.000303626549519        0.041735847046251
        0.270915044568560        0.000819705321104       -0.000292196315189        0.039815372092347
        0.273333928895065        0.000786477732634       -0.000280342076633        0.037870919448301
        0.275752813221570        0.000754018859192       -0.000268762938736        0.035996646499241
        0.278171697548075        0.000720396677620       -0.000256769838184        0.034099307915770
        0.280590581874580        0.000687893227388       -0.000245176566324        0.032286560050725
        0.283009466201085        0.000654261009597       -0.000233181651342        0.030451672348706
        0.285428350527590        0.000622079617957       -0.000221704876659        0.028714230456979
        0.287847234854095        0.000588809863251       -0.000209840855303        0.026955587837154
        0.290266119180600        0.000557299027275       -0.000198604705811        0.025305516576937
        0.292685003507105        0.000524745485435       -0.000186997566335        0.023635197321650
        0.295103887833610        0.000494229165218       -0.000176117391829        0.022082698589640
        0.297522772160115        0.000462720403086       -0.000164884115404        0.020510919197008
        0.299941656486620        0.000433491984923       -0.000154464342044        0.019064214991323
        0.302360540813125        0.000403325324738       -0.000143710748618        0.017599213607412
        0.304779425139630        0.000375642053845       -0.000133842901342        0.016264459708330
        0.307198309466135        0.000347077990901       -0.000123661666763        0.014912410266837
        0.309617193792640        0.000321155974044       -0.000114422595086        0.013693641686779
        0.312036078119145        0.000294413173788       -0.000104891474945        0.012458599696610
        0.314454962445650        0.000270423043115       -0.000096341814466        0.011357708369811
        0.316873846772155        0.000245674008561       -0.000087522106855        0.010241588811399
        0.319292731098660        0.000223737327274       -0.000079705005029        0.009258333511687
        0.321711615425165        0.000201104816881       -0.000071640280602        0.008260920825597
        0.324130499751670        0.000181291295390       -0.000064580411065        0.007392968826818
        0.326549384078175        0.000160845559426       -0.000057295534475        0.006511958507469
        0.328968268404680        0.000143171137441       -0.000050998419553        0.005754958041227
        0.331387152731185        0.000124928027646       -0.000044498881684        0.004986028892497
        0.333806037057690        0.000109353863581       -0.000038950537702        0.004333711019242
        0.336224921384195        0.000093273856777       -0.000033222113051        0.003670626693879
        0.338643805710700        0.000079706251057       -0.000028389027835        0.003114934792143
        0.341062690037205        0.000065694412562       -0.000023397766183        0.002549672829194
        0.343481574363710        0.000053985676249       -0.000019227212740        0.002080917529441
        0.345900458690215        0.000041892573731       -0.000014919768828        0.001603823728895
        0.348319343016720        0.000031842838463       -0.000011340453725        0.001210860777770
        0.350738227343225        0.000021466401489       -0.000007644753191        0.000810826413826
        0.353157111669730        0.000012826351427       -0.000004567792715        0.000481254655685
        0.355575995996235        0.000003914656646       -0.000001394027107        0.000145913733447
        0.357994880322740       -0.000003610851900        0.000001285761055       -0.000133709857988
        0.360413764649245       -0.000011355905023        0.000004043822716       -0.000417766349778
        0.362832648975750       -0.000018103385109        0.000006446329683       -0.000661697863421
        0.365251533302255       -0.000025021557540        0.000008909730456       -0.000908693956562
        0.367670417628760       -0.000031363656823        0.000011167690549       -0.001131763390984
        0.370089301955265       -0.000037831075464        0.000013470398791       -0.001356499808949
        0.372508186281770       -0.000044170640530        0.000015727274959       -0.001573865113324
        0.374927070608275       -0.000050593802058        0.000018014048306       -0.001791474127116
        0.377345954934780       -0.000057357328883        0.000020421699595       -0.002018372032210
        0.379764839261285       -0.000064166489627        0.000022845730937       -0.002244069076700
        0.382183723587790       -0.000071797057623        0.000025561896670       -0.002495566319194
        0.384602607914295       -0.000079439107570        0.000028282277048       -0.002744401954164
        0.387021492240800       -0.000088388903555        0.000031467915585       -0.003035150455542
        0.389440376567305       -0.000097319831471        0.000034646952072       -0.003321766215337
        0.391859260893810       -0.000108042377282        0.000038463474604       -0.003665765686707
        0.394278145220315       -0.000118719441286        0.000042263903866       -0.004004157274589
        0.396697029546820       -0.000131661644408        0.000046870345699       -0.004414528582904
        0.399115913873325       -0.000144535367938        0.000051452485890       -0.004817819732547
        0.401534798199830       -0.000160129518379        0.000057002659063       -0.005306592184009
        0.403953682526335       -0.000175635635373        0.000062521544094       -0.005786822333313
        0.406372566852840       -0.000194291474039        0.000069161215847       -0.006364737809028
        0.408791451179345       -0.000212842949090        0.000075763756733       -0.006932666513091
        0.411210335505850       -0.000234939933032        0.000083627898397       -0.007609003133335
        0.413629219832355       -0.000256919182369        0.000091450116426       -0.008273933887077
        0.416048104158860       -0.000282799070442        0.000100660266642       -0.009056351587393
        0.418466988485365       -0.000308550507719        0.000109824642412       -0.009825977437417
        0.420885872811870       -0.000338510386473        0.000120486427248       -0.010720387516091
        0.423304757138375       -0.000368333413526        0.000131099408282       -0.011600660519807
        0.425723641464880       -0.000402619277517        0.000143300258817       -0.012611120866411
        0.428142525791385       -0.000436761834599        0.000155449966432       -0.013606147108523
        0.430561410117890       -0.000475562827873        0.000169257071738       -0.014734784451839
        0.432980294444395       -0.000514215610304        0.000183011245159       -0.015846745958728
        0.435399178770900       -0.000557659026632        0.000198469775332       -0.017093706084585
        0.437818063097405       -0.000600950465605        0.000213873987782       -0.018322810591021
        0.440236947423910       -0.000649097594267        0.000231005617873       -0.019686237081667
        0.442655831750415       -0.000697089688654        0.000248081795497       -0.021030696206941
        0.445074716076920       -0.000749932580371        0.000266883556843       -0.022506737849205
        0.447493600403425       -0.000802617654097        0.000285628826967       -0.023962773836921
        0.449912484729930       -0.000860076868199        0.000306072307649       -0.025545620442470
        0.452331369056435       -0.000917375314188        0.000326458198078       -0.027107501215840
        0.454750253382940       -0.000979298693592        0.000348489109068       -0.028789447198600
        0.457169137709445       -0.001041057750689        0.000370461114924       -0.030449549086154
        0.459588022035950       -0.001107220255874        0.000393999233037       -0.032221083756128
        0.462006906362455       -0.001173213849714        0.000417476762199       -0.033969980858580
        0.464425790688960       -0.001243318466954        0.000442416255299       -0.035819904022749
        0.466844675015465       -0.001313248129787        0.000467292957799       -0.037646482824509
        0.469263559341970       -0.001386927852620        0.000493503091959       -0.039562043939888
        0.471682443668475       -0.001460424720776        0.000519647572917       -0.041453641424572
