#           time (fs)    |     mu_x (e.angstrom)   |     mu_y (e.angstrom)   |     mu_z (e.angstrom)   |
        0.000000000000000       -0.000000000000000       -0.000000000000000        0.000000000000000
        0.002418884326505       -0.000000000572058        0.000000001246509       -0.000026970494591
        0.004837768653010       -0.000000002288399        0.000000004985956       -0.000053935466604
        0.007256652979515       -0.000000005120884        0.000000011157693       -0.000080461701044
        0.009675537306020       -0.000000006660467        0.000000014511806       -0.000078481774181
        0.012094421632525       -0.000000008026627        0.000000017488941       -0.000075662589883
        0.014513305959030       -0.000000002083448        0.000000004539439       -0.000016364792494
        0.016932190285535        0.000000006545182       -0.000000014259821        0.000044059741405
        0.019351074612040        0.000000031897226       -0.000000069497450        0.000187883464997
        0.021769958938545        0.000000063591788       -0.000000138552482        0.000332932520802
        0.024188843265050        0.000000124529000       -0.000000271323048        0.000586742805714
        0.026607727591555        0.000000196496563       -0.000000428124590        0.000841615857850
        0.029026611918060        0.000000312934424       -0.000000681819781        0.001228572543647
        0.031445496244565        0.000000445972476       -0.000000971681392        0.001616101077826
        0.033864380571070        0.000000640924944       -0.000001396443815        0.002156548642475
        0.036283264897575        0.000000858749372       -0.000001871037687        0.002696688130040
        0.038702149224080        0.000001157573062       -0.000002522114094        0.003407689040537
        0.041121033550585        0.000001486034906       -0.000003237764506        0.004117060198420
        0.043539917877090        0.000001915575541       -0.000004173646092        0.005011984562753
        0.045958802203595        0.000002381784566       -0.000005189419866        0.005903472170626
        0.048377686530100        0.000002969445584       -0.000006469812950        0.006991651206721
        0.050796570856605        0.000003600821146       -0.000007845451471        0.008074067857426
        0.053215455183110        0.000004373576431       -0.000009529126453        0.009360517687956
        0.055634339509615        0.000005196848092       -0.000011322868211        0.010638338814315
        0.058053223836120        0.000006180222477       -0.000013465438297        0.012123559963450
        0.060472108162625        0.000007220404384       -0.000015731784254        0.013596735326826
        0.062890992489130        0.000008437446689       -0.000018383467935        0.015276592051523
        0.065309876815635        0.000009716810752       -0.000021170944281        0.016940437611615
        0.067728761142140        0.000011187084802       -0.000024374366975        0.018806119865036
        0.070147645468645        0.000012724158211       -0.000027723340905        0.020651292596790
        0.072566529795150        0.000014462777309       -0.000031511431277        0.022689362017619
        0.074985414121655        0.000016271389868       -0.000035452035318        0.024701918823665
        0.077404298448160        0.000018288119719       -0.000039846070754        0.026894438698343
        0.079823182774665        0.000020376525843       -0.000044396289754        0.029055979110848
        0.082242067101170        0.000022674979887       -0.000049404143159        0.031380726794120
        0.084660951427675        0.000025045078902       -0.000054568115469        0.033668617697129
        0.087079835754180        0.000027622028381       -0.000060182752053        0.036099376529422
        0.089498720080685        0.000030268705044       -0.000065949332645        0.038487055691458
        0.091917604407190        0.000033113524015       -0.000072147600731        0.040993982049179
        0.094336488733695        0.000036024128918       -0.000078489229083        0.043451335865792
        0.096755373060200        0.000039118391830       -0.000085230983308        0.046001395651664
        0.099174257386705        0.000042272378622       -0.000092102892983        0.048495205187100
        0.101593141713210        0.000045589625040       -0.000099330481683        0.051052672839044
        0.104012026039715        0.000048958358309       -0.000106670281736        0.053547121051456
        0.106430910366220        0.000052464035989       -0.000114308422919        0.056074133044377
        0.108849794692725        0.000056010780169       -0.000122036073725        0.058531365003013
        0.111268679019230        0.000059662374039       -0.000129992136091        0.060988518858609
        0.113687563345735        0.000063342469989       -0.000138010334075        0.063369245833242
        0.116106447672240        0.000067089820702       -0.000146175031069        0.065716234854890
        0.118525331998745        0.000070851052696       -0.000154370008305        0.067980372392663
        0.120944216325250        0.000074636864442       -0.000162618504530        0.070176645717543
        0.123363100651755        0.000078420016283       -0.000170861240415        0.072283975230899
        0.125781984978260        0.000082180549501       -0.000179054660897        0.074289412347413
        0.128200869304765        0.000085920144449       -0.000187202494317        0.076200255325640
        0.130619753631270        0.000089586085080       -0.000195189818422        0.077975843944544
        0.133038637957775        0.000093211300287       -0.000203088440123        0.079651737673400
        0.135457522284280        0.000096708793343       -0.000210708753474        0.081160243765867
        0.137876406610785        0.000100144535626       -0.000218194549986        0.082564607394248
        0.140295290937290        0.000103396367130       -0.000225279619661        0.083771226316289
        0.142714175263795        0.000106564493306       -0.000232182332164        0.084870006242579
        0.145133059590300        0.000109491401264       -0.000238559463021        0.085742984147267
        0.147551943916805        0.000112312062851       -0.000244705117206        0.086505268005218
        0.149970828243310        0.000114834154796       -0.000250200240403        0.087016483194429
        0.152389712569815        0.000117227243907       -0.000255414296792        0.087415072191686
        0.154808596896320        0.000119265495836       -0.000259855235665        0.087540566668443
        0.157227481222825        0.000121152166431       -0.000263965904128        0.087552496661238
        0.159646365549330        0.000122629975717       -0.000267185757651        0.087272948901773
        0.162065249875835        0.000123934212211       -0.000270027415103        0.086879951366680
        0.164484134202340        0.000124778975247       -0.000271867995245        0.086181082226501
        0.166903018528845        0.000125429178802       -0.000273284641867        0.085369977203217
        0.169321902855350        0.000125573862904       -0.000273599898443        0.084242881891275
        0.171740787181855        0.000125504424584       -0.000273448585269        0.083005896006715
        0.174159671508360        0.000124889102976       -0.000272107950363        0.081447296192442
        0.176578555834865        0.000124041932374       -0.000270262109853        0.079782300022403
        0.178997440161370        0.000122615250970       -0.000267153693630        0.077794711367118
        0.181416324487875        0.000120941228932       -0.000263506304867        0.075705371632273
        0.183835208814380        0.000118661774114       -0.000258539875693        0.073297183342945
        0.186254093140885        0.000116122098827       -0.000253006397227        0.070793026754520
        0.188672977467390        0.000112959636522       -0.000246116081364        0.067978491126397
        0.191091861793895        0.000109527033446       -0.000238637087399        0.065074878075399
        0.193510746120400        0.000105463591483       -0.000229783727260        0.061874009401383
        0.195929630446905        0.000101123359457       -0.000220327186894        0.058592017104028
        0.198348514773410        0.000096154127477       -0.000209500301767        0.055030400762307
        0.200767399099915        0.000090904995732       -0.000198063446234        0.051396616912192
        0.203186283426420        0.000085039019738       -0.000185282745591        0.047505130877544
        0.205605167752925        0.000078893793519       -0.000171893474922        0.043551360289835
        0.208024052079430        0.000072154445502       -0.000157209881644        0.039365812725600
        0.210442936405935        0.000065140421465       -0.000141927669711        0.035128700866838
        0.212861820732440        0.000057565628329       -0.000125423818891        0.030689388820347
        0.215280705058945        0.000049724764783       -0.000108340084305        0.026209967475862
        0.217699589385450        0.000041366984992       -0.000090130272387        0.021561162997038
        0.220118473711955        0.000032755816359       -0.000071368192116        0.016884324613040
        0.222537358038460        0.000023681757242       -0.000051597760966        0.012073695821017
        0.224956242364965        0.000014371046711       -0.000031311513507        0.007247604247468
        0.227375126691470        0.000004661120103       -0.000010155664390        0.002325579962014
        0.229794011017975       -0.000005264750745        0.000011470900131       -0.002598973605966
        0.232212895344480       -0.000015517231927        0.000033808857037       -0.007579886092652
        0.234631779670985       -0.000025961132781        0.000056564111686       -0.012550172242386
        0.237050663997490       -0.000036651009484        0.000079855055796       -0.017536105870016
        0.239469548323995       -0.000047504181520        0.000103502037580       -0.022498180654859
        0.241888432650500       -0.000058515742547        0.000127493857238       -0.027434652749939
        0.244307316977005       -0.000069659155568        0.000151773224033       -0.032334104803851
        0.246726201303510       -0.000080867653361        0.000176194119098       -0.037166775195347
        0.249145085630015       -0.000092173581430        0.000200827582637       -0.041949484721475
        0.251563969956520       -0.000103446947835        0.000225389802781       -0.046624916050035
        0.253982854283025       -0.000114780740480        0.000250083987747       -0.051237813882497
        0.256401738609530       -0.000125981476443        0.000274487949737       -0.055704222250633
        0.258820622936035       -0.000137203498345        0.000298938619929       -0.060096037137623
        0.261239507262540       -0.000148190707690        0.000322877338819       -0.064304021356959
        0.263658391589045       -0.000159158416000        0.000346773923204       -0.068426003756379
        0.266077275915550       -0.000169789950086        0.000369937685125       -0.072329241749274
        0.268496160242055       -0.000180360075336        0.000392968029573       -0.076135852763055
        0.270915044568560       -0.000190494752631        0.000415049227754       -0.079691754164800
        0.273333928895065       -0.000200525546509        0.000436904492461       -0.083141308759469
        0.275752813221570       -0.000210025408976        0.000457602543463       -0.086311613435767
        0.278171697548075       -0.000219378920245        0.000477982161687       -0.089366867796071
        0.280590581874580       -0.000228111486958        0.000497008415600       -0.092118180827479
        0.283009466201085       -0.000236655825460        0.000515625026446       -0.094746854555373
        0.285428350527590       -0.000244496303105        0.000532707583142       -0.097051109232167
        0.287847234854095       -0.000252107851202        0.000549291849808       -0.099226334120952
        0.290266119180600       -0.000258941261085        0.000564180193296       -0.101061175622037
        0.292685003507105       -0.000265506791995        0.000578485418474       -0.102761863888362
        0.295103887833610       -0.000271229973919        0.000590954782962       -0.104110947568055
        0.297522772160115       -0.000276648637325        0.000602761235048       -0.105322073694062
        0.299941656486620       -0.000281172092145        0.000612616619525       -0.106175273250648
        0.302360540813125       -0.000285357229076        0.000621735486853       -0.106888064954360
        0.304779425139630       -0.000288606763963        0.000628815239803       -0.107241587182577
        0.307198309466135       -0.000291487515315        0.000635092135265       -0.107453622474967
        0.309617193792640       -0.000293405658650        0.000639271037452       -0.107310026788310
        0.312036078119145       -0.000294928334792        0.000642588982582       -0.107025235567499
        0.314454962445650       -0.000295475491193        0.000643780763631       -0.106393357992123
        0.316873846772155       -0.000295604673836        0.000644062589332       -0.105621928145411
        0.319292731098660       -0.000294759993992        0.000642221822931       -0.104516711011603
        0.321711615425165       -0.000293479345809        0.000639431933474       -0.103274900520843
        0.324130499751670       -0.000291241290541        0.000634555266340       -0.101717130586796
        0.326549384078175       -0.000288554052911        0.000628700723851       -0.100026988638163
        0.328968268404680       -0.000284940636051        0.000620827404915       -0.098042947850600
        0.331387152731185       -0.000280869800627        0.000611958303182       -0.095931949412595
        0.333806037057690       -0.000275918500926        0.000601169991639       -0.093552983916544
        0.336224921384195       -0.000270506646392        0.000589379100457       -0.091053583647211
        0.338643805710700       -0.000264273984533        0.000575798944138       -0.088315597980793
        0.341062690037205       -0.000257582775928        0.000561220618456       -0.085464710634238
        0.343481574363710       -0.000250143558787        0.000545011607213       -0.082407595262211
        0.345900458690215       -0.000242252912893        0.000527819968698       -0.079246010964413
        0.348319343016720       -0.000233699153385        0.000509182580925       -0.075913012396443
        0.350738227343225       -0.000224706079881        0.000489588993102       -0.072484756230801
        0.353157111669730       -0.000215145606822        0.000468758166883       -0.068921799918031
        0.355575995996235       -0.000205162741084        0.000447008038427       -0.065273446183492
        0.357994880322740       -0.000194717519528        0.000424249511857       -0.061528423173016
        0.360413764649245       -0.000183871368918        0.000400618475638       -0.057708375434737
        0.362832648975750       -0.000172675557142        0.000376224553346       -0.053830404370761
        0.365251533302255       -0.000161104488335        0.000351014081267       -0.049888153000330
        0.367670417628760       -0.000149302262999        0.000325298895850       -0.045926829480293
        0.370089301955265       -0.000137154263200        0.000298831421004       -0.041912198766735
        0.372508186281770       -0.000124897449074        0.000272125768654       -0.037916844280329
        0.374927070608275       -0.000112327698717        0.000244739396766       -0.033879241374955
        0.377345954934780       -0.000099773243621        0.000217385235646       -0.029898164066738
        0.379764839261285       -0.000086941542297        0.000189428136715       -0.025885841997864
        0.382183723587790       -0.000074248881456        0.000161772844399       -0.021965621296761
        0.384602607914295       -0.000061316972217        0.000133597422922       -0.018024968051881
        0.387021492240800       -0.000048645328989        0.000105987915216       -0.014209774803707
        0.389440376567305       -0.000035774168760        0.000077944862990       -0.010384640028457
        0.391859260893810       -0.000023279840598        0.000050721680581       -0.006715603155783
        0.394278145220315       -0.000010626866147        0.000023154019816       -0.003046673367009
        0.396697029546820        0.000001539454370       -0.000003354508660        0.000438696726475
        0.399115913873325        0.000013823014705       -0.000030117282533        0.003914464361324
        0.401534798199830        0.000025518833916       -0.000055600692377        0.007182786413200
        0.403953682526335        0.000037290552712       -0.000081248259204        0.010432662701139
        0.406372566852840        0.000048384036076       -0.000105419309922        0.013455121162103
        0.408791451179345        0.000059512734679       -0.000129665858199        0.016451028066300
        0.411210335505850        0.000069884986123       -0.000152265499725        0.019203728836245
        0.413629219832355        0.000080252991111       -0.000174854642990        0.021922580683013
        0.416048104158860        0.000089800107352       -0.000195656491598        0.024386820633398
        0.418466988485365        0.000099305271916       -0.000216365672619        0.026810778238543
        0.420885872811870        0.000107940131240       -0.000235179908287        0.028973224637410
        0.423304757138375        0.000116497581639       -0.000253824204251        0.031089858751645
        0.425723641464880        0.000124151331163       -0.000270500811060        0.032942636259398
        0.428142525791385        0.000131694903091       -0.000286936063152        0.034744998288910
        0.430561410117890        0.000138318113684       -0.000301367345588        0.036285682772090
        0.432980294444395        0.000144801448731       -0.000315492547980        0.037772282307465
        0.435399178770900        0.000150364912605       -0.000327614868677        0.039003802294590
        0.437818063097405        0.000155762190904       -0.000339373764844        0.040178492550253
        0.440236947423910        0.000160257343157       -0.000349168463013        0.041108940700165
        0.442655831750415        0.000164563634726       -0.000358550311271        0.041980714499877
        0.445074716076920        0.000168002586825       -0.000366043775606        0.042623072942914
        0.447493600403425        0.000171233810858       -0.000373083260437        0.043205773359702
        0.449912484729930        0.000173648990952       -0.000378346145403        0.043577558182108
        0.452331369056435        0.000175841479300       -0.000383122426407        0.043889509331122
        0.454750253382940        0.000177284881374       -0.000386268016278        0.044012340783147
        0.457169137709445        0.000178494549604       -0.000388902922087        0.044075905553955
        0.459588022035950        0.000179036600584       -0.000390084662575        0.043975011754807
        0.462006906362455        0.000179337737108       -0.000390740052654        0.043816084439369
        0.464425790688960        0.000179065798078       -0.000390148285357        0.043519747413121
        0.466844675015465        0.000178549488943       -0.000389022617939        0.043167190223155
        0.469263559341970        0.000177566013499       -0.000386880567770        0.042706144017011
        0.471682443668475        0.000176338227224       -0.000384204727132        0.042191177378185
