#     time (fs)  |  E_x (eV/ang)  | E_y (eV/ang) | E_z (eV/ang)
     0.00000000     0.00000000     0.00000000     1.46758386
     0.00241888     0.09895596     0.09895596     1.46591431
     0.00483777     0.19768677     0.19768677     1.46090947
     0.00725665     0.29596780     0.29596780     1.45258070
     0.00967554     0.39357543     0.39357543     1.44094698
     0.01209442     0.49028759     0.49028759     1.42603476
     0.01451331     0.58588422     0.58588422     1.40787797
     0.01693219     0.68014783     0.68014783     1.38651794
     0.01935107     0.77286395     0.77286395     1.36200324
     0.02176996     0.86382162     0.86382162     1.33438967
     0.02418884     0.95281388     0.95281388     1.30374005
     0.02660773     1.03963828     1.03963828     1.27012411
     0.02902661     1.12409725     1.12409725     1.23361835
     0.03144550     1.20599864     1.20599864     1.19430581
     0.03386438     1.28515609     1.28515609     1.15227594
     0.03628326     1.36138951     1.36138951     1.10762437
     0.03870215     1.43452545     1.43452545     1.06045270
     0.04112103     1.50439751     1.50439751     1.01086825
     0.04353992     1.57084671     1.57084671     0.95898383
     0.04595880     1.63372186     1.63372186     0.90491750
     0.04837769     1.69287991     1.69287991     0.84879227
     0.05079657     1.74818626     1.74818626     0.79073584
     0.05321546     1.79951508     1.79951508     0.73088030
     0.05563434     1.84674958     1.84674958     0.66936183
     0.05805322     1.88978228     1.88978228     0.60632041
     0.06047211     1.92851529     1.92851529     0.54189947
     0.06289099     1.96286046     1.96286046     0.47624557
     0.06530988     1.99273967     1.99273967     0.40950811
     0.06772876     2.01808493     2.01808493     0.34183892
     0.07014765     2.03883857     2.03883857     0.27339196
     0.07256653     2.05495337     2.05495337     0.20432298
     0.07498541     2.06639267     2.06639267     0.13478911
     0.07740430     2.07313044     2.07313044     0.06494856
     0.07982318     2.07515135     2.07515135    -0.00503976
     0.08224207     2.07245080     2.07245080    -0.07501661
     0.08466095     2.06503494     2.06503494    -0.14482278
     0.08707984     2.05292063     2.05292063    -0.21429945
     0.08949872     2.03613545     2.03613545    -0.28328854
     0.09191760     2.01471758     2.01471758    -0.35163307
     0.09433649     1.98871576     1.98871576    -0.41917756
     0.09675537     1.95818914     1.95818914    -0.48576832
     0.09917426     1.92320718     1.92320718    -0.55125385
     0.10159314     1.88384946     1.88384946    -0.61548514
     0.10401203     1.84020555     1.84020555    -0.67831605
     0.10643091     1.79237474     1.79237474    -0.73960364
     0.10884979     1.74046585     1.74046585    -0.79920846
     0.11126868     1.68459699     1.68459699    -0.85699489
     0.11368756     1.62489528     1.62489528    -0.91283145
     0.11610645     1.56149655     1.56149655    -0.96659111
     0.11852533     1.49454504     1.49454504    -1.01815155
     0.12094422     1.42419310     1.42419310    -1.06739545
     0.12336310     1.35060077     1.35060077    -1.11421077
     0.12578198     1.27393552     1.27393552    -1.15849101
     0.12820087     1.19437176     1.19437176    -1.20013540
     0.13061975     1.11209053     1.11209053    -1.23904920
     0.13303864     1.02727902     1.02727902    -1.27514388
     0.13545752     0.94013022     0.94013022    -1.30833730
     0.13787641     0.85084239     0.85084239    -1.33855394
     0.14029529     0.75961871     0.75961871    -1.36572507
     0.14271418     0.66666670     0.66666670    -1.38978884
     0.14513306     0.57219788     0.57219788    -1.41069052
     0.14755194     0.47642717     0.47642717    -1.42838254
     0.14997083     0.37957248     0.37957248    -1.44282466
     0.15238971     0.28185417     0.28185417    -1.45398401
     0.15480860     0.18349457     0.18349457    -1.46183521
     0.15722748     0.08471749     0.08471749    -1.46636039
     0.15964637    -0.01425235    -0.01425235    -1.46754925
     0.16206525    -0.11318977    -0.11318977    -1.46539909
     0.16448413    -0.21186965    -0.21186965    -1.45991481
     0.16690302    -0.31006747    -0.31006747    -1.45110887
     0.16932190    -0.40755982    -0.40755982    -1.43900132
     0.17174079    -0.50412488    -0.50412488    -1.42361971
     0.17415967    -0.59954293    -0.59954293    -1.40499902
     0.17657856    -0.69359688    -0.69359688    -1.38318163
     0.17899744    -0.78607273    -0.78607273    -1.35821717
     0.18141632    -0.87676009    -0.87676009    -1.33016246
     0.18383521    -0.96545261    -0.96545261    -1.29908131
     0.18625409    -1.05194849    -1.05194849    -1.26504444
     0.18867298    -1.13605095    -1.13605095    -1.22812930
     0.19109186    -1.21756862    -1.21756862    -1.18841988
     0.19351075    -1.29631604    -1.29631604    -1.14600652
     0.19592963    -1.37211403    -1.37211403    -1.10098572
     0.19834851    -1.44479014    -1.44479014    -1.05345993
     0.20076740    -1.51417902    -1.51417902    -1.00353727
     0.20318628    -1.58012278    -1.58012278    -0.95133132
     0.20560517    -1.64247138    -1.64247138    -0.89696087
     0.20802405    -1.70108298    -1.70108298    -0.84054962
     0.21044294    -1.75582422    -1.75582422    -0.78222592
     0.21286182    -1.80657054    -1.80657054    -0.72212248
     0.21528071    -1.85320649    -1.85320649    -0.66037604
     0.21769959    -1.89562595    -1.89562595    -0.59712708
     0.22011847    -1.93373243    -1.93373243    -0.53251952
     0.22253736    -1.96743920    -1.96743920    -0.46670036
     0.22495624    -1.99666959    -1.99666959    -0.39981934
     0.22737513    -2.02135708    -2.02135708    -0.33202864
     0.22979401    -2.04144551    -2.04144551    -0.26348249
     0.23221290    -2.05688918    -2.05688918    -0.19433686
     0.23463178    -2.06765293    -2.06765293    -0.12474907
     0.23705066    -2.07371229    -2.07371229    -0.05487744
     0.23946955    -2.07505346    -2.07505346     0.01511904
     0.24188843    -2.07167340    -2.07167340     0.08508113
     0.24430732    -2.06357979    -2.06357979     0.15484963
     0.24672620    -2.05079106    -2.05079106     0.22426582
     0.24914509    -2.03333629    -2.03333629     0.29317175
     0.25156397    -2.01125520    -2.01125520     0.36141064
     0.25398285    -1.98459804    -1.98459804     0.42882724
     0.25640174    -1.95342544    -1.95342544     0.49526816
     0.25882062    -1.91780835    -1.91780835     0.56058222
     0.26123951    -1.87782778    -1.87782778     0.62462083
     0.26365839    -1.83357472    -1.83357472     0.68723828
     0.26607728    -1.78514985    -1.78514985     0.74829210
     0.26849616    -1.73266333    -1.73266333     0.80764338
     0.27091504    -1.67623460    -1.67623460     0.86515708
     0.27333393    -1.61599204    -1.61599204     0.92070235
     0.27575281    -1.55207272    -1.55207272     0.97415280
     0.27817170    -1.48462207    -1.48462207     1.02538682
     0.28059058    -1.41379356    -1.41379356     1.07428785
     0.28300947    -1.33974833    -1.33974833     1.12074462
     0.28542835    -1.26265486    -1.26265486     1.16465143
     0.28784723    -1.18268855    -1.18268855     1.20590838
     0.29026612    -1.10003134    -1.10003134     1.24442161
     0.29268500    -1.01487131    -1.01487131     1.28010349
     0.29510389    -0.92740220    -0.92740220     1.31287283
     0.29752277    -0.83782304    -0.83782304     1.34265507
     0.29994166    -0.74633763    -0.74633763     1.36938246
     0.30236054    -0.65315413    -0.65315413     1.39299419
     0.30477943    -0.55848455    -0.55848455     1.41343652
     0.30719831    -0.46254428    -0.46254428     1.43066295
     0.30961719    -0.36555162    -0.36555162     1.44463429
     0.31203608    -0.26772724    -0.26772724     1.45531874
     0.31445496    -0.16929372    -0.16929372     1.46269200
     0.31687385    -0.07047501    -0.07047501     1.46673729
     0.31929273     0.02850404     0.02850404     1.46744541
     0.32171162     0.12741824     0.12741824     1.46481475
     0.32413050     0.22604253     0.22604253     1.45885128
     0.32654938     0.32415252     0.32415252     1.44956859
     0.32896827     0.42152499     0.42152499     1.43698779
     0.33138715     0.51793839     0.51793839     1.42113750
     0.33380604     0.61317335     0.61317335     1.40205379
     0.33622492     0.70701321     0.70701321     1.37978008
     0.33864381     0.79924444     0.79924444     1.35436704
     0.34106269     0.88965721     0.88965721     1.32587250
     0.34348157     0.97804579     0.97804579     1.29436128
     0.34590046     1.06420909     1.06420909     1.25990509
     0.34831934     1.14795106     1.14795106     1.22258232
     0.35073823     1.22908118     1.22908118     1.18247789
     0.35315711     1.30741484     1.30741484     1.13968304
     0.35557600     1.38277383     1.38277383     1.09429514
     0.35799488     1.45498668     1.45498668     1.04641747
     0.36041376     1.52388910     1.52388910     0.99615894
     0.36283265     1.58932431     1.58932431     0.94363393
     0.36525153     1.65114343     1.65114343     0.88896192
     0.36767042     1.70920581     1.70920581     0.83226732
     0.37008930     1.76337935     1.76337935     0.77367911
     0.37250819     1.81354078     1.81354078     0.71333060
     0.37492707     1.85957598     1.85957598     0.65135909
     0.37734595     1.90138021     1.90138021     0.58790559
     0.37976484     1.93885835     1.93885835     0.52311446
     0.38218372     1.97192513     1.97192513     0.45713313
     0.38460261     2.00050532     2.00050532     0.39011171
     0.38702149     2.02453388     2.02453388     0.32220270
     0.38944038     2.04395616     2.04395616     0.25356059
     0.39185926     2.05872795     2.05872795     0.18434158
     0.39427815     2.06881566     2.06881566     0.11470315
     0.39669703     2.07419632     2.07419632     0.04480374
     0.39911591     2.07485769     2.07485769    -0.02519761
     0.40153480     2.07079828     2.07079828    -0.09514162
     0.40395368     2.06202731     2.06202731    -0.16486917
     0.40637257     2.04856475     2.04856475    -0.23422160
     0.40879145     2.03044121     2.03044121    -0.30304113
     0.41121034     2.00769795     2.00769795    -0.37117116
     0.41362922     1.98038670     1.98038670    -0.43845669
     0.41604810     1.94856960     1.94856960    -0.50474463
     0.41846699     1.91231905     1.91231905    -0.56988416
     0.42088587     1.87171753     1.87171753    -0.63372706
     0.42330476     1.82685740     1.82685740    -0.69612809
     0.42572364     1.77784075     1.77784075    -0.75694526
     0.42814253     1.72477909     1.72477909    -0.81604020
     0.43056141     1.66779315     1.66779315    -0.87327846
     0.43298029     1.60701258     1.60701258    -0.92852981
     0.43539918     1.54257569     1.54257569    -0.98166853
     0.43781806     1.47462907     1.47462907    -1.03257372
     0.44023695     1.40332733     1.40332733    -1.08112957
     0.44265583     1.32883268     1.32883268    -1.12722559
     0.44507472     1.25131463     1.25131463    -1.17075691
     0.44749360     1.17094954     1.17094954    -1.21162448
     0.44991248     1.08792027     1.08792027    -1.24973532
     0.45233137     1.00241572     1.00241572    -1.28500272
     0.45475025     0.91463044     0.91463044    -1.31734643
     0.45716914     0.82476416     0.82476416    -1.34669287
     0.45958802     0.73302135     0.73302135    -1.37297527
     0.46200691     0.63961074     0.63961074    -1.39613382
     0.46442579     0.54474487     0.54474487    -1.41611585
     0.46684468     0.44863957     0.44863957    -1.43287587
     0.46926356     0.35151351     0.35151351    -1.44637577
     0.47168244     0.25358768     0.25358768    -1.45658482
     0.47410133     0.15508488     0.15508488    -1.46347979
     0.47652021     0.05622922     0.05622922    -1.46704501
     0.47893910    -0.04275438    -0.04275438    -1.46727235
     0.48135798    -0.14164069    -0.14164069    -1.46416130
     0.48377687    -0.24020474    -0.24020474    -1.45771895
     0.48619575    -0.33822227    -0.33822227    -1.44795993
     0.48861463    -0.43547027    -0.43547027    -1.43490647
     0.49103352    -0.53172746    -0.53172746    -1.41858826
     0.49345240    -0.62677486    -0.62677486    -1.39904242
     0.49587129    -0.72039619    -0.72039619    -1.37631344
     0.49829017    -0.81237845    -0.81237845    -1.35045301
     0.50070906    -0.90251236    -0.90251236    -1.32151999
     0.50312794    -0.99059284    -0.99059284    -1.28958020
     0.50554682    -1.07641948    -1.07641948    -1.25470631
     0.50796571    -1.15979702    -1.15979702    -1.21697767
     0.51038459    -1.24053575    -1.24053575    -1.17648012
     0.51280348    -1.31845197    -1.31845197    -1.13330580
     0.51522236    -1.39336840    -1.39336840    -1.08755294
     0.51764125    -1.46511459    -1.46511459    -1.03932564
     0.52006013    -1.53352730    -1.53352730    -0.98873363
     0.52247901    -1.59845087    -1.59845087    -0.93589202
     0.52489790    -1.65973759    -1.65973759    -0.88092104
     0.52731678    -1.71724801    -1.71724801    -0.82394575
     0.52973567    -1.77085130    -1.77085130    -0.76509579
     0.53215455    -1.82042548    -1.82042548    -0.70450506
     0.53457344    -1.86585776    -1.86585776    -0.64231142
     0.53699232    -1.90704478    -1.90704478    -0.57865636
     0.53941120    -1.94389282    -1.94389282    -0.51368473
     0.54183009    -1.97631804    -1.97631804    -0.44754434
     0.54424897    -2.00424668    -2.00424668    -0.38038568
     0.54666786    -2.02761519    -2.02761519    -0.31236156
     0.54908674    -2.04637039    -2.04637039    -0.24362674
     0.55150563    -2.06046962    -2.06046962    -0.17433761
     0.55392451    -2.06988080    -2.06988080    -0.10465182
     0.55634340    -2.07458251    -2.07458251    -0.03472792
     0.55876228    -2.07456405    -2.07456405     0.03527499
     0.56118116    -2.06982548    -2.06982548     0.10519764
     0.56360005    -2.06037756    -2.06037756     0.17488094
     0.56601893    -2.04624180    -2.04624180     0.24416634
     0.56843782    -2.02745036    -2.02745036     0.31289621
     0.57085670    -2.00404599    -2.00404599     0.38091417
     0.57327559    -1.97608194    -1.97608194     0.44806546
     0.57569447    -1.94362185    -1.94362185     0.51419729
     0.57811335    -1.90673955    -1.90673955     0.57915921
     0.58053224    -1.86551898    -1.86551898     0.64280340
     0.58295112    -1.82005391    -1.82005391     0.70498506
     0.58537001    -1.77044779    -1.77044779     0.76556271
     0.58778889    -1.71681348    -1.71681348     0.82439853
     0.59020778    -1.65927302    -1.65927302     0.88135865
     0.59262666    -1.59795732    -1.59795732     0.93631347
     0.59504554    -1.53300589    -1.53300589     0.98913796
     0.59746443    -1.46456651    -1.46456651     1.03971192
     0.59988331    -1.39279490    -1.39279490     1.08792029
     0.60230220    -1.31785436    -1.31785436     1.13365339
     0.60472108    -1.23991538    -1.23991538     1.17680717
     0.60713997    -1.15915531    -1.15915531     1.21728342
     0.60955885    -1.07575788    -1.07575788     1.25499008
     0.61197773    -0.98991285    -0.98991285     1.28984133
     0.61439662    -0.90181554    -0.90181554     1.32175789
     0.61681550    -0.81166638    -0.81166638     1.35066714
     0.61923439    -0.71967049    -0.71967049     1.37650331
     0.62165327    -0.62603718    -0.62603718     1.39920761
     0.62407216    -0.53097949    -0.53097949     1.41872837
     0.62649104    -0.43471370    -0.43471370     1.43502120
     0.62890992    -0.33745883    -0.33745883     1.44804902
     0.63132881    -0.23943616    -0.23943616     1.45778219
     0.63374769    -0.14086872    -0.14086872     1.46419855
     0.63616658    -0.04198077    -0.04198077     1.46728352
     0.63858546     0.05700270     0.05700270     1.46703008
     0.64100435     0.15585647     0.15585647     1.46343880
     0.64342323     0.25435563     0.25435563     1.45651784
     0.64584212     0.35227608     0.35227608     1.44628297
     0.64826100     0.44939501     0.44939501     1.43275747
     0.65067988     0.54549146     0.54549146     1.41597210
     0.65309877     0.64034679     0.64034679     1.39596506
     0.65551765     0.73374518     0.73374518     1.37278188
     0.65793654     0.82547413     0.82547413     1.34647529
     0.66035542     0.91532493     0.91532493     1.31710515
     0.66277431     1.00309315     1.00309315     1.28473829
     0.66519319     1.08857910     1.08857910     1.24944835
     0.66761207     1.17158828     1.17158828     1.21131562
     0.67003096     1.25193181     1.25193181     1.17042686
     0.67244984     1.32942691     1.32942691     1.12687510
     0.67486873     1.40389724     1.40389724     1.08075944
     0.67728761     1.47517338     1.47517338     1.03218479
     0.67970650     1.54309316     1.54309316     0.98126169
     0.68212538     1.60750203     1.60750203     0.92810598
     0.68454426     1.66825346     1.66825346     0.87283861
     0.68696315     1.72520921     1.72520921     0.81558532
     0.68938203     1.77823971     1.77823971     0.75647639
     0.69180092     1.82722430     1.82722430     0.69564630
     0.69421980     1.87205152     1.87205152     0.63323345
     0.69663869     1.91261938     1.91261938     0.56937984
     0.69905757     1.94883559     1.94883559     0.50423076
     0.70147645     1.98061773     1.98061773     0.43793443
     0.70389534     2.00789350     2.00789350     0.37064171
     0.70631422     2.03060085     2.03060085     0.30250568
     0.70873311     2.04868809     2.04868809     0.23368138
     0.71115199     2.06211409     2.06211409     0.16432541
     0.71357088     2.07084830     2.07084830     0.09459555
     0.71598976     2.07487083     2.07487083     0.02465047
     0.71840864     2.07417255     2.07417255    -0.04535070
     0.72082753     2.06875504     2.06875504    -0.11524869
     0.72324641     2.05863062     2.05863062    -0.18488445
     0.72566530     2.04382233     2.04382233    -0.25409957
     0.72808418     2.02436387     2.02436387    -0.32273654
     0.73050307     2.00029950     2.00029950    -0.39063921
     0.73292195     1.97168398     1.97168398    -0.45765309
     0.73534084     1.93858241     1.93858241    -0.52362570
     0.73775972     1.90107011     1.90107011    -0.58840694
     0.74017860     1.85923243     1.85923243    -0.65184941
     0.74259749     1.81316456     1.81316456    -0.71380877
     0.74501637     1.76297131     1.76297131    -0.77414405
     0.74743526     1.70876689     1.70876689    -0.83271797
     0.74985414     1.65067462     1.65067462    -0.88939726
     0.75227303     1.58882668     1.58882668    -0.94405296
     0.75469191     1.52336378     1.52336378    -0.99656072
     0.75711079     1.45443487     1.45443487    -1.04680107
     0.75952968     1.38219678     1.38219678    -1.09465970
     0.76194856     1.30681387     1.30681387    -1.14002772
     0.76436745     1.22845764     1.22845764    -1.18280191
     0.76678633     1.14730639     1.14730639    -1.22288495
     0.76920522     1.06354474     1.06354474    -1.26018564
     0.77162410     0.97736328     0.97736328    -1.29461910
     0.77404298     0.88895809     0.88895809    -1.32610701
     0.77646187     0.79853031     0.79853031    -1.35457770
     0.77888075     0.70628569     0.70628569    -1.37996642
     0.78129964     0.61243410     0.61243410    -1.40221538
     0.78371852     0.51718907     0.51718907    -1.42127398
     0.78613741     0.42076732     0.42076732    -1.43709884
