#           time (fs)       | force (atom_1) (H/b)   |  force (atom_2) (H/b)  |           ...          |  force (atom_N) (H/b)  |
        0.000000000000000       -0.000000000000000       -0.000000000000000       -0.001977038000788       -0.000000000000000       -0.000000000000000        0.001977038000788
        0.120944216325250       -0.000017916701601        0.000015751369208       -0.004579300971928        0.000017916701601       -0.000015751370431        0.004579300971928
        0.241888432650500       -0.000056436062725        0.000046150997395       -0.007178041358777        0.000056436062725       -0.000046150993805        0.007178041358777
        0.362832648975750       -0.000115564842170        0.000049101179777       -0.009753170631401        0.000115564842170       -0.000049101183314        0.009753170631401
        0.483776865301000       -0.000194461313736        0.000073117648017       -0.012252153500266        0.000194461313736       -0.000073117650438        0.012252153500266
        0.604721081626250       -0.000292066180842        0.000161396113694       -0.014655341810029        0.000292066180842       -0.000161396102094        0.014655341810029
        0.725665297951500       -0.000406172739735        0.000200530728300       -0.016910214172813        0.000406172739735       -0.000200530744024        0.016910214172813
        0.846609514276750       -0.000534407821815        0.000179337059428       -0.018990670227768        0.000534407821815       -0.000179337051706        0.018990670227768
        0.967553730602000       -0.000673643657782        0.000291143590301       -0.020862387183373        0.000673643657782       -0.000291143578965        0.020862387183373
        1.088497946927250       -0.000820018650324        0.000496536691810       -0.022488280980605        0.000820018650324       -0.000496536720119        0.022488280980605
        1.209442163252500       -0.000969118766815        0.000510796949856       -0.023834520886025        0.000969118766815       -0.000510796924153        0.023834520886025
        1.330386379577750       -0.001116591714850        0.000397748759617       -0.024882719994921        0.001116591714850       -0.000397748764740        0.024882719994921
        1.451330595903000       -0.001256940962293        0.000475332990324       -0.025598648598059        0.001256940962293       -0.000475333012817        0.025598648598059
        1.572274812228250       -0.001386005594156        0.000637216071094       -0.025984833721797        0.001386005594156       -0.000637216034621        0.025984833721797
        1.693219028553500       -0.001499033768614        0.000592731859797       -0.026033350375894        0.001499033768614       -0.000592731885510        0.026033350375894
        1.814163244878750       -0.001590290029048        0.000551554839043       -0.025722790921486        0.001590290029048       -0.000551554841262        0.025722790921486
        1.935107461204000       -0.001657242335114        0.000762001811651       -0.025085711245358        0.001657242335114       -0.000762001784320        0.025085711245358
        2.056051677529250       -0.001694543424061        0.000868770689817       -0.024106504082342        0.001694543424061       -0.000868770722211        0.024106504082342
        2.176995893854500       -0.001700672968418        0.000658374329763       -0.022823999468607        0.001700672968418       -0.000658374313395        0.022823999468607
        2.297940110179750       -0.001674412604238        0.000619098840341       -0.021271938237270        0.001674412604238       -0.000619098832912        0.021271938237270
        2.418884326505000       -0.001613366371802        0.000907495324862       -0.019462344341757        0.001613366371802       -0.000907495345936        0.019462344341757
        2.539828542830250       -0.001517841093521        0.000911527741759       -0.017435267308243        0.001517841093521       -0.000911527716965        0.017435267308243
        2.660772759155500       -0.001388896456370        0.000545700278561       -0.015231014703791        0.001388896456370       -0.000545700287006        0.015231014703791
        2.781716975480750       -0.001224798301055        0.000498657593670       -0.012852959751910        0.001224798301055       -0.000498657604447        0.012852959751910
        2.902661191806000       -0.001031683087602        0.000736687389500       -0.010382553480042        0.001031683087602       -0.000736687366891        0.010382553480042
        3.023605408131250       -0.000810910664109        0.000549338893154       -0.007841790463587        0.000810910664109       -0.000549338914333        0.007841790463587
        3.144549624456500       -0.000564301154095        0.000191446559066       -0.005253336939490        0.000564301154095       -0.000191446555534        0.005253336939490
        3.265493840781750       -0.000298914489524        0.000405846606829       -0.002683428405555        0.000298914489524       -0.000405846586884        0.002683428405555
        3.386438057107000       -0.000013607083198        0.000679401533584       -0.000117978899337        0.000013607083198       -0.000679401570114        0.000117978899337
        3.507382273432250        0.000286224661869        0.000232520256305        0.002400381007078       -0.000286224661869       -0.000232520219561       -0.002400381007078
        3.628326489757500        0.000594062974273       -0.000205431059255        0.004825237771480       -0.000594062974273        0.000205431063509       -0.004825237771480
        3.749270706082750        0.000912337192283        0.000098327115900        0.007186128306751       -0.000912337192283       -0.000098327162963       -0.007186128306751
        3.870214922408000        0.001230256566680        0.000220670516097        0.009407820842575       -0.001230256566680       -0.000220670442318       -0.009407820842575
        3.991159138733250        0.001543940382892       -0.000387302410285        0.011474696379588       -0.001543940382892        0.000387302366574       -0.011474696379588
        4.112103355058500        0.001857568118675       -0.000546015712811        0.013430809803101       -0.001857568118675        0.000546015688222       -0.013430809803101
        4.233047571383750        0.002159969524327        0.000054069297529        0.015207212736254       -0.002159969524327       -0.000054069207721       -0.015207212736254
        4.353991787709000        0.002452446194126       -0.000033324660988        0.016827297735191       -0.002452446194126        0.000033324559798       -0.016827297735191
        4.474936004034250        0.002734149111138       -0.000861220480511        0.018297466368293       -0.002734149111138        0.000861220520961       -0.018297466368293
        4.595880220359500        0.002995403021993       -0.000814390474681        0.019565609653541       -0.002995403021993        0.000814390536662       -0.019565609653541
        4.716824436684750        0.003246089004744       -0.000154690053532        0.020709024373320       -0.003246089004744        0.000154689919863       -0.020709024373320
        4.837768653010000        0.003471134839860       -0.000534952720852        0.021642198596605       -0.003471134839860        0.000534952845714       -0.021642198596605
        4.958712869335250        0.003666560848110       -0.001296293650653        0.022354675577236       -0.003666560848110        0.001296293631841       -0.022354675577236
        5.079657085660500        0.003847176906822       -0.000827173461095        0.022948843992167       -0.003847176906822        0.000827173357145       -0.022948843992167
        5.200601301985750        0.003994137433559       -0.000212900304836        0.023321818582721       -0.003994137433559        0.000212900469021       -0.023321818582721
        5.321545518311000        0.004105296981577       -0.000935034628796        0.023474668382271       -0.004105296981577        0.000935034516525       -0.023474668382271
        5.442489734636251        0.004195118624610       -0.001486129354553        0.023501392996810       -0.004195118624610        0.001486129339249       -0.023501392996810
        5.563433950961501        0.004247510020855       -0.000607818748072        0.023320751813550       -0.004247510020855        0.000607818879711       -0.023320751813550
        5.684378167286750        0.004270622214775       -0.000182507175689        0.022988394949511       -0.004270622214775        0.000182507017497       -0.022988394949511
        5.805322383612000        0.004254648234307       -0.001158605930064        0.022460959589264       -0.004254648234307        0.001158606007949       -0.022460959589264
        5.926266599937250        0.004194058397596       -0.001414493052833        0.021720616030205       -0.004194058397596        0.001414493098832       -0.021720616030205
        6.047210816262500        0.004110432516580       -0.000403352189223        0.020888775366865       -0.004110432516580        0.000403352055178       -0.020888775366865
        6.168155032587750        0.003975532241712       -0.000335957634655        0.019829556977493       -0.003975532241712        0.000335957749036       -0.019829556977493
        6.289099248913001        0.003787914586680       -0.001263041979649        0.018548344094545       -0.003787914586680        0.001263041943541       -0.018548344094545
        6.410043465238251        0.003571393880964       -0.000950886479410        0.017171813015103       -0.003571393880964        0.000950886422588       -0.017171813015103
        6.530987681563500        0.003302152929073        0.000142305124466        0.015592910935843       -0.003302152929073       -0.000142305035399       -0.015592910935843
        6.651931897888750        0.002984011247691       -0.000166057955338        0.013840538440091       -0.002984011247691        0.000166057899116       -0.013840538440091
        6.772876114214000        0.002628988856768       -0.000955903302613        0.011979209092677       -0.002628988856768        0.000955903308552       -0.011979209092677
        6.893820330539250        0.002223074152472       -0.000225733214282        0.009952650713287       -0.002223074152472        0.000225733250119       -0.009952650713287
        7.014764546864500        0.001786111006394        0.000697546139689        0.007857640254845       -0.001786111006394       -0.000697546172862       -0.007857640254845
        7.135708763189751        0.001300166122758        0.000128374645049        0.005621219733392       -0.001300166122758       -0.000128374644981       -0.005621219733392
        7.256652979515001        0.000764584155210       -0.000274183844940        0.003249006677232       -0.000764584155210        0.000274183845753       -0.003249006677232
        7.377597195840250        0.000206462152476        0.000793254597917        0.000862387290937       -0.000206462152476       -0.000793254605694       -0.000862387290937
        7.498541412165500       -0.000393614606681        0.001421362215209       -0.001616252884935        0.000393614606681       -0.001421362247678        0.001616252884935
        7.619485628490750       -0.001027733809421        0.000720707170429       -0.004148920959781        0.001027733809421       -0.000720707144829        0.004148920959781
        7.740429844816000       -0.001664633020934        0.000762311720303       -0.006607362866244        0.001664633020934       -0.000762311705445        0.006607362866244
        7.861374061141250       -0.002322163512736        0.001983799278576       -0.009063514725503        0.002322163512736       -0.001983799334716        0.009063514725503
        7.982318277466501       -0.002977992309819        0.002218415998912       -0.011430406213439        0.002977992309819       -0.002218415921425        0.011430406213439
        8.103262493791750       -0.003627989589080        0.001509770187776       -0.013695570128637        0.003627989589080       -0.001509770214486        0.013695570128637
        8.224206710117000       -0.004275731720361        0.002020815751099       -0.015876129432447        0.004275731720361       -0.002020815789971        0.015876129432447
        8.345150926442249       -0.004886468033311        0.003227612674941       -0.017848282700756        0.004886468033311       -0.003227612589462        0.017848282700756
        8.466095142767500       -0.005460289239705        0.003036149344348       -0.019621619601520        0.005460289239705       -0.003036149437377        0.019621619601520
        8.587039359092751       -0.005989053127092        0.002365008831293       -0.021176289177557        0.005989053127092       -0.002365008821367        0.021176289177557
        8.707983575418000       -0.006437157029088        0.003113246547468       -0.022398418751698        0.006437157029088       -0.003113246476930        0.022398418751698
        8.828927791743251       -0.006827923715828        0.003990189840440       -0.023383377722273        0.006827923715828       -0.003990189953931        0.023383377722273
        8.949872008068500       -0.007146111394429        0.003379082297185       -0.024090861075951        0.007146111394429       -0.003379082220555        0.024090861075951
        9.070816224393750       -0.007363621237169        0.002964540507695       -0.024440579411957        0.007363621237169       -0.002964540493578        0.024440579411957
        9.191760440718999       -0.007495619294334        0.004007220653633       -0.024498727473463        0.007495619294334       -0.004007220748620        0.024498727473463
        9.312704657044250       -0.007511279088671        0.004418813419851       -0.024179593962939        0.007511279088671       -0.004418813309224        0.024179593962939
        9.433648873369501       -0.007421584152375        0.003328033932924       -0.023535227798852        0.007421584152375       -0.003328033985285        0.023535227798852
        9.554593089694750       -0.007247213742638        0.003115946871722       -0.022644940643641        0.007247213742638       -0.003115946911285        0.022644940643641
        9.675537306020001       -0.006960406555802        0.004205965030927       -0.021434249651981        0.006960406555802       -0.004205964919124        0.021434249651981
        9.796481522345250       -0.006582925176711        0.004025179152023       -0.019983173421746        0.006582925176711       -0.004025179231825        0.019983173421746
        9.917425738670500       -0.006119628262860        0.002644948359721       -0.018316530862270        0.006119628262860       -0.002644948335969        0.018316530862270
       10.038369954995749       -0.005540862917081        0.002735455821422       -0.016355765327021        0.005540862917081       -0.002735455766314        0.016355765327021
       10.159314171321000       -0.004902303907287        0.003672083204261       -0.014274892175779        0.004902303907287       -0.003672083287342        0.014274892175779
       10.280258387646251       -0.004206266291013        0.002797796304783       -0.012085174446485        0.004206266291013       -0.002797796266316        0.012085174446485
       10.401202603971500       -0.003446977709217        0.001434415526510       -0.009774229348613        0.003446977709217       -0.001434415530905        0.009774229348613
       10.522146820296751       -0.002659723277266        0.002142341014226       -0.007445125725891        0.002659723277266       -0.002142341064817        0.007445125725891
       10.643091036622000       -0.001816471100733        0.002867431932506       -0.005020627191955        0.001816471100733       -0.002867431911867        0.005020627191955
       10.764035252947250       -0.000954317253216        0.001279322195699       -0.002605053796313        0.000954317253216       -0.001279322164407        0.002605053796313
       10.884979469272501       -0.000098074223491        0.000088190041656       -0.000264466409990        0.000098074223491       -0.000088190039750        0.000264466409990
       11.005923685597750        0.000802866239685        0.001227162694390        0.002139185756095       -0.000802866239685       -0.001227162692024       -0.002139185756095
       11.126867901923001        0.001666624910346        0.001433156336549        0.004388578341246       -0.001666624910346       -0.001433156253567       -0.004388578341246
       11.247812118248250        0.002476535593425       -0.000606075299644        0.006446147942414       -0.002476535593425        0.000606075247289       -0.006446147942414
       11.368756334573501        0.003310175473595       -0.001044323755169        0.008518471403777       -0.003310175473595        0.001044323732196       -0.008518471403777
       11.489700550898750        0.004104860052677        0.000661959245403        0.010445885346382       -0.004104860052677       -0.000661959149528       -0.010445885346382
       11.610644767224001        0.004848489542682        0.000142747768589        0.012203003958286       -0.004848489542682       -0.000142747932034       -0.012203003958286
       11.731588983549251        0.005552017929659       -0.002227682123909        0.013822843890221       -0.005552017929659        0.002227682178598       -0.013822843890221
       11.852533199874500        0.006212376538004       -0.001810408109467        0.015302382179509       -0.006212376538004        0.001810408201851       -0.015302382179509
       11.973477416199751        0.006876819837489       -0.000023640964858        0.016761298575625       -0.006876819837489        0.000023640756119       -0.016761298575625
       12.094421632525000        0.007418936072225       -0.001424485098615        0.017895337525862       -0.007418936072225        0.001424485324363       -0.017895337525862
       12.215365848850251        0.007854040633955       -0.003475517150045        0.018751008745303       -0.007854040633955        0.003475517134198       -0.018751008745303
       12.336310065175500        0.008345600470182       -0.001917575728402        0.019722990612226       -0.008345600470182        0.001917575553302       -0.019722990612226
       12.457254281500751        0.008732614736771       -0.000385772505439        0.020430976835817       -0.008732614736771        0.000385772799310       -0.020430976835817
       12.578198497826001        0.008960424968035       -0.002649453679877        0.020756045242991       -0.008960424968035        0.002649453484127       -0.020756045242991
       12.699142714151250        0.009200536059228       -0.004036011493247        0.021102671365900       -0.009200536059228        0.004036011447681       -0.021102671365900
       12.820086930476501        0.009419907824271       -0.001554431725939        0.021394989266322       -0.009419907824271        0.001554431974176       -0.021394989266322
       12.941031146801750        0.009561506776582       -0.000769835398111        0.021506089221748       -0.009561506776582        0.000769835105948       -0.021506089221748
       13.061975363127001        0.009557261992241       -0.003574207320486        0.021289364726096       -0.009557261992241        0.003574207454543       -0.021289364726096
       13.182919579452250        0.009495519837084       -0.003870731446516        0.020948957333289       -0.009495519837084        0.003870731555520       -0.020948957333289
       13.303863795777501        0.009500119224621       -0.001036418285634        0.020758863046635       -0.009500119224621        0.001036418005122       -0.020758863046635
       13.424808012102751        0.009317553801297       -0.001289484417967        0.020166001256831       -0.009317553801297        0.001289484637951       -0.020166001256831
