#           time (fs)    |     mu_x (e.angstrom)   |     mu_y (e.angstrom)   |     mu_z (e.angstrom)   |
        0.000000000000000       -0.000000000000000       -0.000000000000000        0.000000000000000
        0.002418884326505        0.000000005594638       -0.000000001917635        0.000071833096417
        0.004837768653010        0.000000022382125       -0.000000007671029        0.000143672581084
        0.007256652979515        0.000000050090566       -0.000000017168099        0.000214337697425
        0.009675537306020        0.000000088815908       -0.000000030439886        0.000285003550600
        0.012094421632525        0.000000137655353       -0.000000047179544        0.000353348124727
        0.014513305959030        0.000000197151541       -0.000000067569733        0.000421682288169
        0.016932190285535        0.000000265434096       -0.000000090973451        0.000486580636814
        0.019351074612040        0.000000343830610       -0.000000117840903        0.000551452261653
        0.021769958938545        0.000000429196621       -0.000000147099882        0.000611824158718
        0.024188843265050        0.000000523956013       -0.000000179574843        0.000672148358605
        0.026607727591555        0.000000623424377       -0.000000213667256        0.000726977078028
        0.029026611918060        0.000000731395876       -0.000000250669728        0.000781733135858
        0.031445496244565        0.000000841430451       -0.000000288383483        0.000830082658911
        0.033864380571070        0.000000958919661       -0.000000328647121        0.000878331383129
        0.036283264897575        0.000001075510565       -0.000000368607743        0.000919362480493
        0.038702149224080        0.000001198363966       -0.000000410708835        0.000960262417713
        0.041121033550585        0.000001317122170       -0.000000451411903        0.000993247331958
        0.043539917877090        0.000001440824774       -0.000000493802865        0.001026069558293
        0.045958802203595        0.000001557088108       -0.000000533650377        0.001050405032368
        0.048377686530100        0.000001676872330       -0.000000574697096        0.001074546266260
        0.050796570856605        0.000001785820729       -0.000000612036995        0.001089764687888
        0.053215455183110        0.000001896784220       -0.000000650059246        0.001104758491989
        0.055634339509615        0.000001993561805       -0.000000683227292        0.001110536952195
        0.058053223836120        0.000002090791791       -0.000000716541381        0.001116062820730
        0.060472108162625        0.000002170633176       -0.000000743904462        0.001112229916621
        0.062890992489130        0.000002249334634       -0.000000770867177        0.001108120077122
        0.065309876815635        0.000002307692706       -0.000000790867121        0.001094660324054
        0.067728761142140        0.000002363317578       -0.000000809920026        0.001080904117989
        0.070147645468645        0.000002395989928       -0.000000821116935        0.001057959873806
        0.072566529795150        0.000002424364503       -0.000000830830029        0.001034705618784
        0.074985414121655        0.000002427615635       -0.000000831944154        0.001002576462349
        0.077404298448160        0.000002425063178       -0.000000831057882        0.000970130738777
        0.079823182774665        0.000002395739660       -0.000000821009065        0.000929270285889
        0.082242067101170        0.000002359195450       -0.000000808473714        0.000888094632439
        0.084660951427675        0.000002294831260       -0.000000786417458        0.000839104813781
        0.087079835754180        0.000002221947242       -0.000000761428987        0.000789809858208
        0.089498720080685        0.000002120856713       -0.000000726788263        0.000733432725553
        0.091917604407190        0.000002010093176       -0.000000688819671        0.000676769819565
        0.094336488733695        0.000001871449133       -0.000000641311648        0.000613876987361
        0.096755373060200        0.000001722151013       -0.000000590139074        0.000550727455687
        0.099174257386705        0.000001546045973       -0.000000529796037        0.000482307324724
        0.101593141713210        0.000001358501645       -0.000000465518856        0.000413669478584
        0.104012026039715        0.000001145990239       -0.000000392702700        0.000340812425973
        0.106430910366220        0.000000921471008       -0.000000315757011        0.000267786529164
        0.108849794692725        0.000000674592144       -0.000000231166794        0.000191668283828
        0.111268679019230        0.000000415370976       -0.000000142331801        0.000115439694914
        0.113687563345735        0.000000137148659       -0.000000047003995        0.000037303149435
        0.116106447672240       -0.000000153502895        0.000000052599066       -0.000040876104476
        0.118525331998745       -0.000000459080767        0.000000157297857       -0.000119740366848
        0.120944216325250       -0.000000776918056        0.000000266214467       -0.000198571301162
        0.123363100651755       -0.000001104943158        0.000000378602401       -0.000276845461940
        0.125781984978260       -0.000001444796502        0.000000495061219       -0.000355002823097
        0.128200869304765       -0.000001789505558        0.000000613163638       -0.000431362945042
        0.130619753631270       -0.000002145350599        0.000000735100593       -0.000507516550211
        0.133038637957775       -0.000002500212207        0.000000856679753       -0.000580654019634
        0.135457522284280       -0.000002865261757        0.000000981769488       -0.000653490407420
        0.137876406610785       -0.000003223083391        0.000001104361187       -0.000722133358466
        0.140295290937290       -0.000003589899554        0.000001230055440       -0.000790377402112
        0.142714175263795       -0.000003942953155        0.000001351012021       -0.000853311776152
        0.145133059590300       -0.000004303578018        0.000001474584373       -0.000915747907884
        0.147551943916805       -0.000004643742152        0.000001591123392       -0.000971837803694
        0.149970828243310       -0.000004989844935        0.000001709719654       -0.001027330501798
        0.152389712569815       -0.000005308761095        0.000001818977412       -0.001075537480378
        0.154808596896320       -0.000005631799232        0.000001929670792       -0.001123050679165
        0.157227481222825       -0.000005921039518        0.000002028759766       -0.001162451700791
        0.159646365549330       -0.000006212430817        0.000002128609843       -0.001201066797875
        0.162065249875835       -0.000006463673907        0.000002214678971       -0.001230870488024
        0.164484134202340       -0.000006714976591        0.000002300793382       -0.001259802642989
        0.166903018528845       -0.000006920188668        0.000002371090062       -0.001279363607999
        0.169321902855350       -0.000007123285890        0.000002440687733       -0.001297976051346
        0.171740787181855       -0.000007274902996        0.000002492620318       -0.001306806993597
        0.174159671508360       -0.000007422188200        0.000002543094994       -0.001314623094513
        0.176578555834865       -0.000007513296355        0.000002574294532       -0.001312404510183
        0.178997440161370       -0.000007597855742        0.000002603277328       -0.001309117385668
        0.181416324487875       -0.000007622365112        0.000002611657269       -0.001295704665198
        0.183835208814380       -0.000007638153449        0.000002617076932       -0.001281184150914
        0.186254093140885       -0.000007590962851        0.000002600889521       -0.001256611942677
        0.188672977467390       -0.000007532968828        0.000002581029124       -0.001230908787024
        0.191091861793895       -0.000007410116955        0.000002538917244       -0.001195392527624
        0.193510746120400       -0.000007274514446        0.000002492466030       -0.001158739714242
        0.195929630446905       -0.000007073314347        0.000002423509295       -0.001112674273797
        0.198348514773410       -0.000006857596084        0.000002349608488       -0.001065485423387
        0.200767399099915       -0.000006576749668        0.000002253362478       -0.001009440860283
        0.203186283426420       -0.000006279840063        0.000002151643942       -0.000952305709482
        0.205605167752925       -0.000005919529695        0.000002028171575       -0.000887020175705
        0.208024052079430       -0.000005541873903        0.000001898788306       -0.000820697178074
        0.210442936405935       -0.000005103828520        0.000001748682465       -0.000747067062594
        0.212861820732440       -0.000004647455172        0.000001592330052       -0.000672473203761
        0.215280705058945       -0.000004134988780        0.000001416726735       -0.000591540646781
        0.217699589385450       -0.000003603544286        0.000001234655064       -0.000509738611677
        0.220118473711955       -0.000003021565170        0.000001035236486       -0.000422676566116
        0.222537358038460       -0.000002420317965        0.000000829251146       -0.000334859440288
        0.224956242364965       -0.000001775307453        0.000000608238406       -0.000242954497932
        0.227375126691470       -0.000001111121111        0.000000380691414       -0.000150428226366
        0.229794011017975       -0.000000411081306        0.000000140826532       -0.000055061464000
        0.232212895344480        0.000000307644001       -0.000000105403777        0.000040774670937
        0.234631779670985        0.000001053273535       -0.000000360886455        0.000138148536063
        0.237050663997490        0.000001816691151       -0.000000622426346        0.000235823121752
        0.239469548323995        0.000002597147174       -0.000000889839168        0.000333697948151
        0.241888432650500        0.000003394084954       -0.000001162860989        0.000431690008384
        0.244307316977005        0.000004197423618       -0.000001438112031        0.000528531474617
        0.246726201303510        0.000005015534514       -0.000001718385816        0.000625294045652
        0.249145085630015        0.000005828801950       -0.000001997037324        0.000719563559718
        0.251563969956520        0.000006654742285       -0.000002279991855        0.000813547906427
        0.253982854283025        0.000007464170359       -0.000002557327288        0.000903726803758
        0.256401738609530        0.000008283803311       -0.000002838119777        0.000993406893305
        0.258820622936035        0.000009075027677       -0.000003109218464        0.001078020539334
        0.261239507262540        0.000009873648957       -0.000003382811816        0.001161917382625
        0.263658391589045        0.000010631946004       -0.000003642630072        0.001239558794491
        0.266077275915550        0.000011394528191       -0.000003903876523        0.001316264264804
        0.268496160242055        0.000012105067066       -0.000004147333920        0.001385616871641
        0.270915044568560        0.000012816518636       -0.000004391063708        0.001453816615254
        0.273333928895065        0.000013464624112       -0.000004613133054        0.001513675787595
        0.275752813221570        0.000014110058792       -0.000004834246617        0.001572170853024
        0.278171697548075        0.000014681480455       -0.000005030046107        0.001621463848975
        0.280590581874580        0.000015246492241       -0.000005223608237        0.001669190679339
        0.283009466201085        0.000015727675203       -0.000005388494133        0.001706994678168
        0.285428350527590        0.000016198614127       -0.000005549828399        0.001743043135008
        0.287847234854095        0.000016576966354       -0.000005679486578        0.001768601057269
        0.290266119180600        0.000016941209962       -0.000005804268299        0.001792230173518
        0.292685003507105        0.000017205361194       -0.000005894802934        0.001804964020363
        0.295103887833610        0.000017451576634       -0.000005979148963        0.001815615214648
        0.297522772160115        0.000017591623938       -0.000006027166661        0.001815136697081
        0.299941656486620        0.000017710015583       -0.000006067720239        0.001812444220580
        0.302360540813125        0.000017717750682       -0.000006070407951        0.001798562491456
        0.304779425139630        0.000017700288371       -0.000006064416945        0.001782360921587
        0.307198309466135        0.000017569402089       -0.000006019612069        0.001755087268505
        0.309617193792640        0.000017410025282       -0.000005964998982        0.001725415909993
        0.312036078119145        0.000017136284775       -0.000005871250156        0.001684965315159
        0.314454962445650        0.000016831078243       -0.000005766672396        0.001642069417951
        0.316873846772155        0.000016412473054       -0.000005623289617        0.001588858940811
        0.319292731098660        0.000015959810139       -0.000005468188666        0.001533187694903
        0.321711615425165        0.000015396663592       -0.000005275281545        0.001467831684083
        0.324130499751670        0.000014797313558       -0.000005069919822        0.001400033002931
        0.326549384078175        0.000014092356550       -0.000004828422944        0.001323335194937
        0.328968268404680        0.000013349553124       -0.000004573907364        0.001244247350819
        0.331387152731185        0.000012507957992       -0.000004285591953        0.001157189963203
        0.333806037057690        0.000011627426820       -0.000003983883391        0.001067830188853
        0.336224921384195        0.000010656799624       -0.000003651354718        0.000971560164358
        0.338643805710700        0.000009646743050       -0.000003305262826        0.000873110384590
        0.341062690037205        0.000008557073321       -0.000002931943011        0.000768922989264
        0.343481574363710        0.000007428111658       -0.000002545106112        0.000662712893302
        0.345900458690215        0.000006231679423       -0.000002135202267        0.000552032915029
        0.348319343016720        0.000004996748620       -0.000001712052281        0.000439520624017
        0.350738227343225        0.000003707989255       -0.000001270510182        0.000323881457546
        0.353157111669730        0.000002382195669       -0.000000816222833        0.000206632081861
        0.355575995996235        0.000001017523933       -0.000000348666588        0.000087653021787
        0.357994880322740       -0.000000382042305        0.000000130902585       -0.000032684562360
        0.360413764649245       -0.000001804446957        0.000000618244143       -0.000153322469430
        0.362832648975750       -0.000003258937714        0.000001116637199       -0.000275040264051
        0.365251533302255       -0.000004719381702        0.000001617016420       -0.000395619431966
        0.367670417628760       -0.000006208452734        0.000002127262792       -0.000516975997778
        0.370089301955265       -0.000007686011247        0.000002633510184       -0.000635768183369
        0.372508186281770       -0.000009188116463        0.000003148227549       -0.000755014954145
        0.374927070608275       -0.000010660944483        0.000003652858376       -0.000870307402996
        0.377345954934780       -0.000012153658206        0.000004164363089       -0.000985715219452
        0.379764839261285       -0.000013599324861        0.000004659691941       -0.001095836662426
        0.382183723587790       -0.000015059687073        0.000005160117333       -0.001205722106237
        0.384602607914295       -0.000016455528010        0.000005638378846       -0.001309068195329
        0.387021492240800       -0.000017860407096        0.000006119799480       -0.001411819305585
        0.389440376567305       -0.000019183889126        0.000006573273241       -0.001506877085402
        0.391859260893810       -0.000020510356172        0.000007027833108       -0.001600978048399
        0.394278145220315       -0.000021739448120        0.000007448970653       -0.001686349073969
        0.396697029546820       -0.000022965156513        0.000007869013167       -0.001770403492477
        0.399115913873325       -0.000024078699953        0.000008250564932       -0.001844825224795
        0.401534798199830       -0.000025182263803        0.000008628762499       -0.001917577594728
        0.403953682526335       -0.000026160337260        0.000008963902516       -0.001979942732362
        0.406372566852840       -0.000027121702059        0.000009293383447       -0.002040297782669
        0.408791451179345       -0.000027945972229        0.000009575829596       -0.002089671220199
        0.411210335505850       -0.000028746771168        0.000009850300105       -0.002136710805458
        0.413629219832355       -0.000029400824840        0.000010074427767       -0.002172343947230
        0.416048104158860       -0.000030024714338        0.000010288286867       -0.002205341221209
        0.418466988485365       -0.000030494364898        0.000010449233882       -0.002226683421054
        0.420885872811870       -0.000030927333150        0.000010597679058       -0.002245114062925
        0.423304757138375       -0.000031200895918        0.000010691440043       -0.002251821006581
        0.425723641464880       -0.000031431538610        0.000010770561714       -0.002255371318671
        0.428142525791385       -0.000031500069682        0.000010794069905       -0.002247310214771
        0.430561410117890       -0.000031519827529        0.000010800932837       -0.002235881961061
        0.432980294444395       -0.000031377321364        0.000010752127843       -0.002213133458067
        0.435399178770900       -0.000031180674675        0.000010684837887       -0.002186845365224
        0.437818063097405       -0.000030824216306        0.000010562717928       -0.002149702164538
        0.440236947423910       -0.000030408832478        0.000010420472657       -0.002108888061243
        0.442655831750415       -0.000029838700972        0.000010225130137       -0.002057850250234
        0.445074716076920       -0.000029205531569        0.000010008252248       -0.002003053874968
        0.447493600403425       -0.000028425252143        0.000009740891755       -0.001938821056829
        0.449912484729930       -0.000027578577047        0.000009450844358       -0.001870787618376
        0.452331369056435       -0.000026594920133        0.000009113782514       -0.001794247967635
        0.454750253382940       -0.000025542337148        0.000008753165734       -0.001713912595242
        0.457169137709445       -0.000024365263603        0.000008349812589       -0.001626129017668
        0.459588022035950       -0.000023117622832        0.000007922341255       -0.001534602288333
        0.462006906362455       -0.000021760175419        0.000007457163261       -0.001436795910913
        0.464425790688960       -0.000020331458701        0.000006967625749       -0.001335346688755
        0.466844675015465       -0.000018809600926        0.000006446090683       -0.001228877948685
        0.469263559341970       -0.000017216747575        0.000005900289340       -0.001118913814936
        0.471682443668475       -0.000015549151906        0.000005328793848       -0.001005261455385
