#           time (fs)    |     mu_x (e.angstrom)   |     mu_y (e.angstrom)   |     mu_z (e.angstrom)   |
        0.000000000000000       -0.000000000000000       -0.000000000000000        0.000000000000000
        0.002418884326505        0.000000001204121        0.000000000008070       -0.000019000263948
        0.004837768653010       -0.000000079436704       -0.000000000541322        0.000626844447010
        0.007256652979515       -0.000000241919795       -0.000000001652857        0.001272788118783
        0.009675537306020       -0.000000651927183       -0.000000004447830        0.002572589005562
        0.012094421632525       -0.000001226514524       -0.000000008377910        0.003872285078834
        0.014513305959030       -0.000002205866483       -0.000000015054015        0.005803899049404
        0.016932190285535       -0.000003429487654       -0.000000023420283        0.007734911813942
        0.019351074612040       -0.000005201278481       -0.000000035492157        0.010265322905816
        0.021769958938545       -0.000007292501267       -0.000000049776692        0.012794362688453
        0.024188843265050       -0.000010056414826       -0.000000068582903        0.015880245624657
        0.026607727591555       -0.000013209001454       -0.000000090073950        0.018963737814988
        0.029026611918060       -0.000017135339167       -0.000000116718076        0.022552190632074
        0.031445496244565       -0.000021512380870       -0.000000146447836        0.026137012875127
        0.033864380571070       -0.000026736781609       -0.000000181736553        0.030166445232229
        0.036283264897575       -0.000032465546855       -0.000000220416441        0.034190819283381
        0.038702149224080       -0.000039084521145       -0.000000264796754        0.038591980473862
        0.041121033550585       -0.000046252137742       -0.000000312752954        0.042986502683399
        0.043539917877090       -0.000054319521321       -0.000000366252103        0.047683631156507
        0.045958802203595       -0.000062969594962       -0.000000423365573        0.052372423395698
        0.048377686530100       -0.000072494007293       -0.000000485538315        0.057284497785479
        0.050796570856605       -0.000082624259362       -0.000000551194458        0.062186458873135
        0.053215455183110       -0.000093567631353       -0.000000621083262        0.067228529140470
        0.055634339509615       -0.000105128617269       -0.000000694137091        0.072258665472402
        0.058053223836120       -0.000117405829795       -0.000000770251107        0.077343241785085
        0.060472108162625       -0.000130300776244       -0.000000849013873        0.082414054931073
        0.062890992489130       -0.000143780427342       -0.000000929332291        0.087452531339553
        0.065309876815635       -0.000157866202878       -0.000001011584995        0.092475439813185
        0.067728761142140       -0.000172372497219       -0.000001093589569        0.097379529586726
        0.070147645468645       -0.000187461706295       -0.000001176627663        0.102266301807172
        0.072566529795150       -0.000202777436159       -0.000001257367675        0.106949461462359
        0.074985414121655       -0.000218641602144       -0.000001338079566        0.111613637084380
        0.077404298448160       -0.000234512165074       -0.000001414270555        0.115992456633543
        0.079823182774665       -0.000250885943754       -0.000001489250293        0.120350733898873
        0.082242067101170       -0.000267024318875       -0.000001557405470        0.124346271644228
        0.084660951427675       -0.000283610660727       -0.000001623097533        0.128319839180831
        0.087079835754180       -0.000299703243837       -0.000001679688203        0.131858880457114
        0.089498720080685       -0.000316179401624       -0.000001732559576        0.135374673002658
        0.091917604407190       -0.000331892579148       -0.000001774198276        0.138390893606435
        0.094336488733695       -0.000347916837543       -0.000001810930474        0.141382752441775
        0.096755373060200       -0.000362904161727       -0.000001834568105        0.143817769061879
        0.099174257386705       -0.000378123148311       -0.000001852259454        0.146227489494790
        0.101593141713210       -0.000392032961166       -0.000001855385689        0.148031781260051
        0.104012026039715       -0.000406089383636       -0.000001851752407        0.149810031285176
        0.106430910366220       -0.000418572725495       -0.000001832587257        0.150943718557199
        0.108849794692725       -0.000431113368843       -0.000001806150731        0.152050814820670
        0.111268679019230       -0.000441831999373       -0.000001763814524        0.152484283563613
        0.113687563345735       -0.000452515809329       -0.000001714061915        0.152890812962384
        0.116106447672240       -0.000461150164676       -0.000001648711184        0.152605175397662
        0.118525331998745       -0.000469656240281       -0.000001576217058        0.152292453022413
        0.120944216325250       -0.000475913149981       -0.000001489134985        0.151279837797971
        0.123363100651755       -0.000481948468732       -0.000001395633208        0.150240194456657
        0.125781984978260       -0.000485568460019       -0.000001289265312        0.148503862196360
        0.128200869304765       -0.000488875163808       -0.000001177662816        0.146740757399478
        0.130619753631270       -0.000489639189021       -0.000001055591362        0.144295040210704
        0.133038637957775       -0.000490001267769       -0.000000929918483        0.141822999219676
        0.135457522284280       -0.000487736702404       -0.000000796772594        0.138693065484118
        0.137876406610785       -0.000484985924776       -0.000000662068358        0.135537441776799
        0.140295290937290       -0.000479571699055       -0.000000523370602        0.131758890284759
        0.142714175263795       -0.000473592655428       -0.000000385505293        0.127955457530073
        0.145133059590300       -0.000464963400574       -0.000000247459581        0.123573747694649
        0.147551943916805       -0.000455697542126       -0.000000112900968        0.119168128003721
        0.149970828243310       -0.000443846653334        0.000000017869519        0.114237855461107
        0.152389712569815       -0.000431295232172        0.000000142336125        0.109284793248262
        0.154808596896320       -0.000416276772943        0.000000259088758        0.103868822569125
        0.157227481222825       -0.000400502610924        0.000000366673141        0.098431315768865
        0.159646365549330       -0.000382432007360        0.000000462868323        0.092599784232837
        0.162065249875835       -0.000363560045185        0.000000547104648        0.086748086839041
        0.164484134202340       -0.000342613543439        0.000000616733865        0.080577295224404
        0.166903018528845       -0.000320830146040        0.000000671808945        0.074387807111430
        0.169321902855350       -0.000297243030760        0.000000709710328        0.067959015195510
        0.171740787181855       -0.000272794049427        0.000000730772643        0.061513076919312
        0.174159671508360       -0.000246857645254        0.000000732916144        0.054911222848390
        0.176578555834865       -0.000220045260904        0.000000716347973        0.048293834586156
        0.178997440161370       -0.000192102762396        0.000000680073519        0.041606198438312
        0.181416324487875       -0.000163281157379        0.000000623710254        0.034904683389447
        0.183835208814380       -0.000133722354729        0.000000547904608        0.028219516106011
        0.186254093140885       -0.000103292282338        0.000000451188055        0.021522149531066
        0.188672977467390       -0.000072547270724        0.000000336389412        0.014927288921958
        0.191091861793895       -0.000040949611751        0.000000200445492        0.008321914528344
        0.193510746120400       -0.000009481590765        0.000000048868848        0.001903410256050
        0.195929630446905        0.000022809995098       -0.000000123495650       -0.004523934158850
        0.198348514773410        0.000054512708892       -0.000000308014805       -0.010683164847515
        0.200767399099915        0.000086999912547       -0.000000512397143       -0.016849590720421
        0.203186283426420        0.000118432522351       -0.000000724538594       -0.022671055219019
        0.205605167752925        0.000150601156987       -0.000000955102737       -0.028498114212645
        0.208024052079430        0.000181251522069       -0.000001188269982       -0.033908964251541
        0.210442936405935        0.000212580786155       -0.000001437978585       -0.039323866432656
        0.212861820732440        0.000241938898024       -0.000001684569021       -0.044258025906682
        0.215280705058945        0.000271910968820       -0.000001945472473       -0.049194765784006
        0.217699589385450        0.000299478600206       -0.000002197194951       -0.053593948839265
        0.220118473711955        0.000327588389511       -0.000002460762042       -0.057994321418068
        0.222537358038460        0.000352888744129       -0.000002708984898       -0.061808924702097
        0.224956242364965        0.000378653643038       -0.000002966457533       -0.065623415506104
        0.227375126691470        0.000401240831839       -0.000003202568714       -0.068813270546274
        0.229794011017975        0.000424210268949       -0.000003445322103       -0.072001805636125
        0.232212895344480        0.000443678438893       -0.000003661082718       -0.074536779623663
        0.234631779670985        0.000463443076774       -0.000003880972557       -0.077069323969993
        0.237050663997490        0.000479435021303       -0.000004068846028       -0.078929759750327
        0.239469548323995        0.000495635419181       -0.000004258525494       -0.080786754854944
        0.241888432650500        0.000507850505422       -0.000004411966420       -0.081963743610011
        0.244307316977005        0.000520185081985       -0.000004565158088       -0.083136377959270
        0.246726201303510        0.000528386338321       -0.000004678847803       -0.083631860858218
        0.249145085630015        0.000536618477305       -0.000004790558753       -0.084122169581203
        0.251563969956520        0.000540638696318       -0.000004860578114       -0.083948867512499
        0.253982854283025        0.000544602849022       -0.000004927250271       -0.083769660442064
        0.256401738609530        0.000544349574705       -0.000004951184289       -0.082950833760807
        0.258820622936035        0.000543956227739       -0.000004970776141       -0.082125453896756
        0.261239507262540        0.000539415512306       -0.000004947749232       -0.080694496865979
        0.263658391589045        0.000534654905515       -0.000004919749273       -0.079256413957926
        0.266077275915550        0.000525893739832       -0.000004850394010       -0.077256291176583
        0.268496160242055        0.000516838238312       -0.000004775770171       -0.075248537726521
        0.270915044568560        0.000504005580673       -0.000004662136110       -0.072731072271666
        0.273333928895065        0.000490810625829       -0.000004543228913       -0.070205531657997
        0.275752813221570        0.000474136976357       -0.000004388641105       -0.067230556885863
        0.278171697548075        0.000457040563832       -0.000004229011010       -0.064247115496643
        0.280590581874580        0.000436836055795       -0.000004037890066       -0.060881504418750
        0.283009466201085        0.000416156712454       -0.000003842131358       -0.057507081627361
        0.285428350527590        0.000392807716979       -0.000003619788227       -0.053823669485855
        0.287847234854095        0.000368940974760       -0.000003393322713       -0.050131140992750
        0.290266119180600        0.000342905241469       -0.000003145741650       -0.046207558095815
        0.292685003507105        0.000316318632334       -0.000002894605358       -0.042274589589424
        0.295103887833610        0.000288119014928       -0.000002628227929       -0.038192022632688
        0.297522772160115        0.000259345638083       -0.000002358863032       -0.034099831891768
        0.299941656486620        0.000229562480479       -0.000002080384484       -0.029941732890118
        0.302360540813125        0.000199193220033       -0.000001799446867       -0.025773799363549
        0.304779425139630        0.000168455504886       -0.000001515634002       -0.021624561957376
        0.307198309466135        0.000137130002761       -0.000001229824490       -0.017465303521680
        0.309617193792640        0.000106105389603       -0.000000947361451       -0.013408926809886
        0.312036078119145        0.000074501904243       -0.000000663285863       -0.009342363824423
        0.314454962445650        0.000043885808583       -0.000000388651274       -0.005461124018775
        0.316873846772155        0.000012710114416       -0.000000112711497       -0.001569550975298
        0.319292731098660       -0.000016785998649        0.000000147912629        0.002057298931629
        0.321711615425165       -0.000046812493637        0.000000409597305        0.005694613937115
        0.324130499751670       -0.000074473407919        0.000000650387247        0.008992096648038
        0.326549384078175       -0.000102626129284        0.000000892031908        0.012300164714255
        0.328968268404680       -0.000127745557921        0.000001107559249        0.015198764009245
        0.331387152731185       -0.000153309602585        0.000001323743748        0.018108061176318
        0.333806037057690       -0.000175203026972        0.000001508994221        0.020544821830725
        0.336224921384195       -0.000197486144837        0.000001694679145        0.022992389309545
        0.338643805710700       -0.000215503579481        0.000001845060856        0.024911914318896
        0.341062690037205       -0.000233849063168        0.000001995596754        0.026842355881412
        0.343481574363710       -0.000247387509343        0.000002106945569        0.028197685185739
        0.345900458690215       -0.000261186752351        0.000002218083054        0.029564045829633
        0.348319343016720       -0.000269702103691        0.000002286672433        0.030317402432427
        0.350738227343225       -0.000278406588255        0.000002354579922        0.031081914160473
        0.353157111669730       -0.000281424756900        0.000002377141249        0.031205305514671
        0.355575995996235       -0.000284557239021        0.000002398435624        0.031339988077856
        0.357994880322740       -0.000281684281512        0.000002372193230        0.030815652845311
        0.360413764649245       -0.000278848952002        0.000002343986689        0.030302759568414
        0.362832648975750       -0.000269779989748        0.000002266709552        0.029123452321010
        0.365251533302255       -0.000260671406535        0.000002186673541        0.027955753626286
        0.367670417628760       -0.000245198156037        0.000002056743201        0.026124862704809
        0.370089301955265       -0.000229608764002        0.000001923187864        0.024305762628662
        0.372508186281770       -0.000207625516573        0.000001739679608        0.021837259157688
        0.374927070608275       -0.000185451596344        0.000001551644797        0.019380742960774
        0.377345954934780       -0.000156959515216        0.000001314416996        0.016298961873036
        0.379764839261285       -0.000128205430888        0.000001071768818        0.013229375712715
        0.382183723587790       -0.000093315064514        0.000000781553441        0.009568632497826
        0.384602607914295       -0.000058095711457        0.000000485078726        0.005920298994841
        0.387021492240800       -0.000017027654745        0.000000143564882        0.001724348685748
        0.389440376567305        0.000024430958370       -0.000000204944994       -0.002458974994656
        0.391859260893810        0.000071347289200       -0.000000595043201       -0.007137627416006
        0.394278145220315        0.000118709356128       -0.000000992727934       -0.011803439700874
        0.396697029546820        0.000171038835144       -0.000001427627729       -0.016904365821806
        0.399115913873325        0.000223861963547       -0.000001870521420       -0.021992247370938
        0.401534798199830        0.000281068719583       -0.000002345359403       -0.027448044904694
        0.403953682526335        0.000338809002907       -0.000002828388657       -0.032890607845672
        0.406372566852840        0.000400263170958       -0.000003337246481       -0.038627957402167
        0.408791451179345        0.000462282053311       -0.000003854268427       -0.044351901347402
        0.411210335505850        0.000527268216276       -0.000004390239859       -0.050292712976643
        0.413629219832355        0.000592841052671       -0.000004934122923       -0.056219970426029
        0.416048104158860        0.000660568248558       -0.000005489423470       -0.062282601216384
        0.418466988485365        0.000728894434866       -0.000006052171042       -0.068331553700994
        0.420885872811870        0.000798507578816       -0.000006618288580       -0.074432076787105
        0.423304757138375        0.000868722100188       -0.000007191202950       -0.080518822202826
        0.425723641464880        0.000939314647701       -0.000007759085067       -0.086572326957600
        0.428142525791385        0.001010500871350       -0.000008332966334       -0.092611977969427
        0.430561410117890        0.001081128528957       -0.000008893237579       -0.098533880911805
        0.432980294444395        0.001152332047032       -0.000009458609878       -0.104441874069870
        0.435399178770900        0.001222027319546       -0.000010001810053       -0.110149220099716
        0.437818063097405        0.001292270630508       -0.000010549165543       -0.115842615382667
        0.440236947423910        0.001360057979761       -0.000011065998627       -0.121255349337877
        0.442655831750415        0.001428355782250       -0.000011586048445       -0.126654100210818
        0.445074716076920        0.001493267161068       -0.000012067630925       -0.131696289409443
        0.447493600403425        0.001558642022746       -0.000012551551742       -0.136724464134443
        0.449912484729930        0.001619732539792       -0.000012989649037       -0.141325453496124
        0.452331369056435        0.001681230695203       -0.000013429314058       -0.145912389345088
        0.454750253382940        0.001737594161373       -0.000013816554379       -0.150007871861451
        0.457169137709445        0.001794301187591       -0.000014204738565       -0.154089245036310
        0.459588022035950        0.001845085292950       -0.000014534794884       -0.157622231759785
        0.462006906362455        0.001896141409853       -0.000014865345758       -0.161141027205701
        0.464425790688960        0.001940562281863       -0.000015133078524       -0.164062702531101
        0.466844675015465        0.001985177025446       -0.000015401046029       -0.166970069416665
        0.469263559341970        0.002022532924561       -0.000015602601627       -0.169240519219626
        0.471682443668475        0.002059998946980       -0.000015804323022       -0.171496499634292
