#           time (fs)       | force (atom_1) (H/b)   |  force (atom_2) (H/b)  |           ...          |  force (atom_N) (H/b)  |
        0.000000000000000       -0.000000000000000       -0.000000000000000       -0.001977038000788       -0.000000000000000       -0.000000000000000        0.001977038000788
        0.120944216325250        0.000009769043557       -0.000014066412662       -0.004947132154155       -0.000009769043798        0.000014066412421        0.004947132154155
        0.241888432650500        0.000030283379571       -0.000046613344712       -0.007936955946396       -0.000030283380702        0.000046613343581        0.007936955946396
        0.362832648975750        0.000064775449436       -0.000094594260240       -0.010907647474130       -0.000064775451810        0.000094594257865        0.010907647474130
        0.483776865301000        0.000108854563653       -0.000161749848230       -0.013817513324419       -0.000108854566622        0.000161749845261        0.013817513324419
        0.604721081626250        0.000168574740351       -0.000240453786749       -0.016622598151622       -0.000168574742134        0.000240453784965        0.016622598151622
        0.725665297951500        0.000235776228694       -0.000336331458027       -0.019278263317552       -0.000235776227031        0.000336331459690        0.019278263317552
        0.846609514276750        0.000307167213240       -0.000449272105521       -0.021743178361104       -0.000307167206691        0.000449272112070        0.021743178361104
        0.967553730602000        0.000393108766529       -0.000564423975893       -0.023972272300210       -0.000393108755720        0.000564423986702        0.023972272300210
        1.088497946927250        0.000473634566169       -0.000696343232082       -0.025922993683880       -0.000473634554099        0.000696343244152        0.025922993683880
        1.209442163252500        0.000570941359358       -0.000816606718345       -0.027556283963327       -0.000570941350563        0.000816606727140        0.027556283963327
        1.330386379577750        0.000659270166008       -0.000944143935366       -0.028838820780776       -0.000659270164579        0.000944143936795        0.028838820780776
        1.451330595903000        0.000742227487646       -0.001068127743467       -0.029743925106495       -0.000742227495266        0.001068127735848        0.029743925106495
        1.572274812228250        0.000819207356541       -0.001181781551248       -0.030252159265939       -0.000819207371413        0.001181781536376        0.030252159265939
        1.693219028553500        0.000883663815207       -0.001284449622875       -0.030353141452109       -0.000883663832585        0.001284449605497        0.030353141452109
        1.814163244878750        0.000941853369618       -0.001363022144214       -0.030044254292101       -0.000941853383747        0.001363022130084        0.030044254292101
        1.935107461204000        0.000988598426268       -0.001416586920025       -0.029332839564060       -0.000988598432799        0.001416586913493        0.029332839564060
        2.056051677529250        0.001013662745025       -0.001450128493083       -0.028233699265996       -0.001013662742738        0.001450128495370        0.028233699265996
        2.176995893854500        0.001012410512163       -0.001464241876201       -0.026770712712347       -0.001012410503188        0.001464241885176        0.026770712712347
        2.297940110179750        0.000997706699375       -0.001443195096665       -0.024973803120245       -0.000997706687892        0.001443195108148        0.024973803120245
        2.418884326505000        0.000954867436195       -0.001400255777290       -0.022879961081286       -0.000954867426457        0.001400255787029        0.022879961081286
        2.539828542830250        0.000909769511070       -0.001309403758400       -0.020529853540515       -0.000909769505563        0.001309403763907        0.020529853540515
        2.660772759155500        0.000835844381205       -0.001198480606251       -0.017968287244308       -0.000835844380135        0.001198480607322        0.017968287244308
        2.781716975480750        0.000738446868005       -0.001064241844062       -0.015238520819115       -0.000738446869769        0.001064241842299        0.015238520819115
        2.902661191806000        0.000620854695270       -0.000906368194827       -0.012382824100837       -0.000620854697743        0.000906368192354        0.012382824100837
        3.023605408131250        0.000482003144382       -0.000730183670964       -0.009446382013950       -0.000482003146135        0.000730183669211        0.009446382013950
        3.144549624456500        0.000344645772314       -0.000517769298520       -0.006471509939023       -0.000344645772968        0.000517769297866        0.006471509939023
        3.265493840781750        0.000194484552895       -0.000288921092356       -0.003499019754823       -0.000194484552953        0.000288921092298        0.003499019754823
        3.386438057107000        0.000033042290585       -0.000047726748818       -0.000564831970680       -0.000033042290598        0.000047726748805        0.000564831970680
        3.507382273432250       -0.000145158799497        0.000195267529478        0.002303463071623        0.000145158799425       -0.000195267529551       -0.002303463071623
        3.628326489757500       -0.000335419535239        0.000439467550004        0.005080112803432        0.000335419535454       -0.000439467549788       -0.005080112803432
        3.749270706082750       -0.000516660791887        0.000700160560493        0.007739061151057        0.000516660792762       -0.000700160559618       -0.007739061151057
        3.870214922408000       -0.000694445441057        0.000966412538185        0.010259565513164        0.000694445442347       -0.000966412536895       -0.010259565513164
        3.991159138733250       -0.000864958453742        0.001236789899019        0.012623581384247        0.000864958454461       -0.001236789898300       -0.012623581384247
        4.112103355058500       -0.001043632113876        0.001491476818718        0.014819684148380        0.001043632112594       -0.001491476820000       -0.014819684148380
        4.233047571383750       -0.001230565096414        0.001726458954012        0.016839915351067        0.001230565092149       -0.001726458958278       -0.016839915351067
        4.353991787709000       -0.001401551081500        0.001961881142005        0.018675931182711        0.001401551074655       -0.001961881148849       -0.018675931182711
        4.474936004034250       -0.001563590494109        0.002186754806492        0.020320241423883        0.001563590486567       -0.002186754814033       -0.020320241423883
        4.595880220359500       -0.001696648674275        0.002417748638324        0.021769025206607        0.001696648669066       -0.002417748643532       -0.021769025206607
        4.716824436684750       -0.001830458185045        0.002621772025145        0.023018556418747        0.001830458184963       -0.002621772025227       -0.023018556418747
        4.837768653010000       -0.001965666157279        0.002795217810019        0.024067194715044        0.001965666163612       -0.002795217803686       -0.024067194715044
        4.958712869335250       -0.002088775667029        0.002948898399184        0.024914586726576        0.002088775678680       -0.002948898387533       -0.024914586726576
        5.079657085660500       -0.002197869102851        0.003081943397739        0.025559732257323        0.002197869116425       -0.003081943384164       -0.025559732257323
        5.200601301985750       -0.002269567307962        0.003215464852886        0.026004050321341        0.002269567319021       -0.003215464841827       -0.026004050321341
        5.321545518311000       -0.002325669599740        0.003324939658080        0.026246632810165        0.002325669604425       -0.003324939653396       -0.026246632810165
        5.442489734636251       -0.002374774694722        0.003399410871585        0.026288258699406        0.002374774691339       -0.003399410874967       -0.026288258699406
        5.563433950961501       -0.002420928638064        0.003432248909636        0.026128631539946        0.002420928627777       -0.003432248919923       -0.026128631539946
        5.684378167286750       -0.002444103982157        0.003441191541919        0.025768794455557        0.002444103968513       -0.003441191555562       -0.025768794455557
        5.805322383612000       -0.002439466107369        0.003428446829667        0.025208332881912        0.002439466094911       -0.003428446842125       -0.025208332881912
        5.926266599937250       -0.002392058222210        0.003406779867404        0.024448800661519        0.002392058214660       -0.003406779874954       -0.024448800661519
        6.047210816262500       -0.002332736281463        0.003342566759767        0.023489391825366        0.002332736280472       -0.003342566760758       -0.023489391825366
        6.168155032587750       -0.002265928403464        0.003229146106818        0.022331702718135        0.002265928408157       -0.003229146102125       -0.022331702718135
        6.289099248913001       -0.002179608569948        0.003076365677271        0.020977637548471        0.002179608577616       -0.003076365669602       -0.020977637548471
        6.410043465238251       -0.002070250267960        0.002885627206417        0.019429405185063        0.002070250275503       -0.002885627198874       -0.019429405185063
        6.530987681563500       -0.001906423089545        0.002687064675980        0.017692504105394        0.001906423094585       -0.002687064670939       -0.017692504105394
        6.651931897888750       -0.001718061446248        0.002449310562094        0.015771807499939        0.001718061448132       -0.002449310560210       -0.015771807499939
        6.772876114214000       -0.001511734802156        0.002165491199217        0.013676338887897        0.001511734801639       -0.002165491199734       -0.013676338887897
        6.893820330539250       -0.001295769883358        0.001827051001903        0.011415075821506        0.001295769881942       -0.001827051003319       -0.011415075821506
        7.014764546864500       -0.001059996251378        0.001443939401778        0.008996709569981        0.001059996250326       -0.001443939402830       -0.008996709569981
        7.135708763189751       -0.000777885302743        0.001044423043796        0.006436553462584        0.000777885302430       -0.001044423044109       -0.006436553462584
        7.256652979515001       -0.000459701828358        0.000621610531928        0.003754846617599        0.000459701828500       -0.000621610531786       -0.003754846617599
        7.377597195840250       -0.000117871629322        0.000167326708407        0.000973718671759        0.000117871629397       -0.000167326708332       -0.000973718671759
        7.498541412165500        0.000225201448856       -0.000334423809550       -0.001878719851449       -0.000225201449008        0.000334423809398        0.001878719851449
        7.619485628490750        0.000570384326978       -0.000877293066640       -0.004779121515611       -0.000570384326925        0.000877293066693        0.004779121515611
        7.740429844816000        0.000940371581644       -0.001429625515983       -0.007694277620352       -0.000940371580796        0.001429625516830        0.007694277620352
        7.861374061141250        0.001333504232478       -0.001982367720484       -0.010587524081581       -0.001333504230726        0.001982367722235        0.010587524081581
        7.982318277466501        0.001747366847670       -0.002524836225823       -0.013417125439681       -0.001747366846087        0.002524836227406        0.013417125439681
        8.103262493791750        0.002145004014685       -0.003080010537283       -0.016141452199032       -0.002145004015066        0.003080010536902        0.016141452199032
        8.224206710117000        0.002513493929533       -0.003645273074423       -0.018716989925234       -0.002513493933574        0.003645273070382        0.018716989925234
        8.345150926442249        0.002868803806093       -0.004189136335416       -0.021103317760203       -0.002868803814227        0.004189136327282        0.021103317760203
        8.466095142767500        0.003205974328064       -0.004699354591596       -0.023257931486127       -0.003205974338439        0.004699354581222        0.023257931486127
        8.587039359092751        0.003546542992001       -0.005136124193040       -0.025138277447230       -0.003546543000985        0.005136124184057        0.025138277447230
        8.707983575418000        0.003843489081171       -0.005529625294300       -0.026708887869970       -0.003843489084572        0.005529625290900        0.026708887869970
        8.828927791743251        0.004082479393778       -0.005877302869226       -0.027936717397060       -0.004082479389000        0.005877302874003        0.027936717397060
        8.949872008068500        0.004257209896616       -0.006171000191638       -0.028797784058115       -0.004257209884089        0.006171000204165        0.028797784058115
        9.070816224393750        0.004378106984997       -0.006386994430249       -0.029273011057936       -0.004378106968341        0.006386994446905        0.029273011057936
        9.191760440718999        0.004463657296746       -0.006496899628017       -0.029353782341476       -0.004463657281454        0.006496899643309        0.029353782341476
        9.312704657044250        0.004504540009816       -0.006502273317139       -0.029037766608942       -0.004504540000912        0.006502273326043        0.029037766608942
        9.433648873369501        0.004471109563891       -0.006429258221170       -0.028333898651388       -0.004471109563832        0.006429258221229        0.028333898651388
        9.554593089694750        0.004350727020645       -0.006289585603467       -0.027257217297458       -0.004350727028445        0.006289585595667        0.027257217297458
        9.675537306020001        0.004164261027667       -0.006065062824981       -0.025830852799506       -0.004164261039551        0.006065062813097        0.025830852799506
        9.796481522345250        0.003921283058520       -0.005752442493704       -0.024085558626225       -0.003921283069922        0.005752442482302        0.024085558626225
        9.917425738670500        0.003659297246134       -0.005322621638895       -0.022055285210823       -0.003659297253552        0.005322621631477        0.022055285210823
       10.038369954995749        0.003342908475888       -0.004823678742039       -0.019782282723371       -0.003342908478339        0.004823678739589        0.019782282723371
       10.159314171321000        0.002965730092971       -0.004275492065272       -0.017308244326603       -0.002965730091607        0.004275492066636        0.017308244326603
       10.280258387646251        0.002528083453611       -0.003693046725050       -0.014676737522650       -0.002528083450695        0.003693046727966        0.014676737522650
       10.401202603971500        0.002052978389129       -0.003068038711551       -0.011927493662396       -0.002052978386747        0.003068038713933        0.011927493662396
       10.522146820296751        0.001581533625885       -0.002376715805879       -0.009104197272214       -0.001581533624862        0.002376715806902        0.009104197272214
       10.643091036622000        0.001108957624306       -0.001640993666630       -0.006247702281249       -0.001108957624272        0.001640993666664        0.006247702281249
       10.764035252947250        0.000619937959400       -0.000893547155124       -0.003397343400901       -0.000619937959446        0.000893547155078        0.003397343400901
       10.884979469272501        0.000097948319425       -0.000167098249316       -0.000587970419716       -0.000097948319045        0.000167098249696        0.000587970419716
       11.005923685597750       -0.000441273401480        0.000541120404268        0.002154247384043        0.000441273402153       -0.000541120403595       -0.002154247384043
       11.126867901923001       -0.000960314646910        0.001256176465339        0.004805642822295        0.000960314647418       -0.001256176464831       -0.004805642822295
       11.247812118248250       -0.001439464483849        0.001984233509063        0.007340952134417        0.001439464483776       -0.001984233509136       -0.007340952134417
       11.368756334573501       -0.001889889627803        0.002703404727113        0.009741914597700        0.001889889627425       -0.002703404727491       -0.009741914597700
       11.489700550898750       -0.002341685001353        0.003372215890387        0.011989554323098        0.002341685001689       -0.003372215890051       -0.011989554323098
       11.610644767224001       -0.002801851796420        0.003976819062824        0.014074979220591        0.002801851798660       -0.003976819060583       -0.014074979220591
       11.731588983549251       -0.003237380727145        0.004543644840967        0.015990085194722        0.003237380731663       -0.004543644836448       -0.015990085194722
       11.852533199874500       -0.003624573925816        0.005090206808415        0.017727771128934        0.003624573931581       -0.005090206802649       -0.017727771128934
       11.973477416199751       -0.003944556496611        0.005629566860152        0.019281844226581        0.003944556501530       -0.005629566855233       -0.019281844226581
       12.094421632525000       -0.004241384657332        0.006112444750339        0.020647415151861        0.004241384658743       -0.006112444748929       -0.020647415151861
       12.215365848850251       -0.004534337144299        0.006515398636487        0.021821775708414        0.004534337140372       -0.006515398640414       -0.021821775708414
       12.336310065175500       -0.004811305600816        0.006847351160597        0.022804142689086        0.004811305591690       -0.006847351169723       -0.022804142689086
       12.457254281500751       -0.005049670422010        0.007127634870184        0.023593490799710        0.005049670409989       -0.007127634882205       -0.023593490799710
       12.578198497826001       -0.005203373460054        0.007400568511801        0.024191744488423        0.005203373449027       -0.007400568522827       -0.024191744488423
       12.699142714151250       -0.005308981537349        0.007626795178032        0.024598716614025        0.005308981531177       -0.007626795184204       -0.024598716614025
       12.820086930476501       -0.005390032833623        0.007780036987291        0.024814296714624        0.005390032834700       -0.007780036986214       -0.024814296714624
       12.941031146801750       -0.005466896089774        0.007838214849151        0.024840292326399        0.005466896097937       -0.007838214840987       -0.024840292326399
       13.061975363127001       -0.005513568044699        0.007824050481519        0.024675548297352        0.005513568057240       -0.007824050468978       -0.024675548297352
       13.182919579452250       -0.005491076243918        0.007775427320018        0.024322997543294        0.005491076256663       -0.007775427307273       -0.024322997543294
       13.303863795777501       -0.005387184555613        0.007701657163708        0.023782177178313        0.005387184564548       -0.007701657154773       -0.023782177178313
       13.424808012102751       -0.005240875148721        0.007561440446559        0.023053794079016        0.005240875151488       -0.007561440443792       -0.023053794079016
