#  GS molecular orbital populations, spin channel : 1
#          time (fs)            |   population (orb 1)       |    population (orb 2)      |           ...              |    population (orb N)      |
          0.118525331998745            1.999930490251601            0.000000093700226  
          0.239469548323995            1.999932478127293            0.000000001229606  
          0.360413764649245            1.999935019348351            0.000000099578774  
          0.481357980974495            1.999938479285959            0.000000008333226  
          0.602302197299745            1.999942446060608            0.000000114173902  
          0.723246413624995            1.999947272834780            0.000000028111963  
          0.844190629950245            1.999952554958373            0.000000109450043  
          0.965134846275495            1.999958540216640            0.000000055256808  
          1.086079062600745            1.999964957788070            0.000000071673628  
          1.207023278925995            1.999971814247978            0.000000078452086  
          1.327967495251245            1.999979074455522            0.000000029511487  
          1.448911711576495            1.999986471447076            0.000000104198189  
          1.569855927901745            1.999994208919889            0.000000006452094  
          1.690800144226995            2.000001776044379            0.000000151662986  
          1.811744360552245            2.000009597657480            0.000000018127228  
          1.932688576877495            2.000016983711743            0.000000199553512  
          2.053632793202745            2.000024467454024            0.000000068522966  
          2.174577009527995            2.000031404192785            0.000000179566887  
          2.295521225853245            2.000038136084884            0.000000105950794  
          2.416465442178495            2.000044334513282            0.000000098661548  
          2.537409658503745            2.000049980439891            0.000000107466658  
          2.658353874828995            2.000055106910287            0.000000039265754  
          2.779298091154245            2.000059433194330            0.000000124609401  
          2.900242307479495            2.000063255855313            0.000000026343224  
          3.021186523804745            2.000066073427961            0.000000215294432  
          3.142130740129995            2.000068490916083            0.000000066592136  
          3.263074956455245            2.000069714102354            0.000000364214735  
          3.384019172780495            2.000070727586508            0.000000123555318  
          3.504963389105745            2.000070482218677            0.000000401625596  
          3.625907605430995            2.000070095927978            0.000000095790204  
          3.746851821756245            2.000068533588022            0.000000263305678  
          3.867796038081495            2.000066692939857            0.000000035467293  
          3.988740254406745            2.000063869893840            0.000000150753634  
          4.109684470731995            2.000060686763854            0.000000026199482  
          4.230628687057245            2.000056656879624            0.000000190686375  
          4.351572903382495            2.000052354837087            0.000000115109709  
          4.472517119707745            2.000047258942837            0.000000368819245  
          4.593461336032996            2.000041988305684            0.000000382830787  
          4.714405552358246            2.000036285747943            0.000000465468446  
          4.835349768683495            2.000030279294713            0.000000541521211  
          4.956293985008745            2.000024374826301            0.000000258503896  
          5.077238201333995            2.000017879054903            0.000000363385715  
          5.198182417659245            2.000011656727021            0.000000045385516  
          5.319126633984495            2.000004887420246            0.000000178719955  
          5.440070850309746            1.999998378277333            0.000000010613905  
          5.561015066634996            1.999991485741813            0.000000239084129  
          5.681959282960245            1.999985020112024            0.000000108109581  
          5.802903499285495            1.999978109826287            0.000000543478895  
          5.923847715610745            1.999971898701489            0.000000455000503  
          6.044791931935995            1.999965556432737            0.000000726936161  
          6.165736148261245            1.999959850693750            0.000000645359511  
          6.286680364586495            1.999954609154559            0.000000435580555  
          6.407624580911745            1.999949576134556            0.000000405607673  
          6.528568797236995            1.999945248831657            0.000000108449538  
          6.649513013562244            1.999941035630062            0.000000184946705  
          6.770457229887494            1.999937572802621            0.000000045500108  
          6.891401446212745            1.999934358558774            0.000000236055336  
          7.012345662537995            1.999932050391490            0.000000140002735  
          7.133289878863245            1.999929835532138            0.000000607242658  
          7.254234095188495            1.999928985787202            0.000000397390694  
          7.375178311513745            1.999928080148226            0.000000957711576  
          7.496122527838994            1.999928969369679            0.000000456133189  
          7.617066744164244            1.999929797294171            0.000000761050733  
          7.738010960489495            1.999932231531381            0.000000208724315  
          7.858955176814745            1.999934721097330            0.000000345324733  
          7.979899393139995            1.999938350285759            0.000000071325154  
          8.100843609465246            1.999942296830713            0.000000184352144  
          8.221787825790495            1.999947069816363            0.000000140005190  
          8.342732042115745            1.999952273320946            0.000000289037201  
          8.463676258440994            1.999958011136740            0.000000472715603  
          8.584620474766245            1.999964360977937            0.000000548186507  
          8.705564691091494            1.999970855095215            0.000000909886421  
          8.826508907416745            1.999978406978207            0.000000563298883  
          8.947453123741996            1.999985575408492            0.000000862392047  
          9.068397340067245            1.999993819117195            0.000000256356416  
          9.189341556392495            2.000001342625978            0.000000444777068  
          9.310285772717744            2.000009396280222            0.000000080431510  
          9.431229989042995            2.000016826910219            0.000000219838330  
          9.552174205368244            2.000024245474097            0.000000158186044  
          9.673118421693495            2.000031156330357            0.000000301320667  
          9.794062638018746            2.000037550388346            0.000000573451057  
          9.915006854343995            2.000043670165067            0.000000654487974  
         10.035951070669245            2.000048795097665            0.000001194599760  
         10.156895286994494            2.000054228627587            0.000000830553433  
         10.277839503319745            2.000058298778403            0.000001183920073  
         10.398783719644994            2.000062772631987            0.000000447622182  
         10.519727935970245            2.000065653370925            0.000000587363852  
         10.640672152295496            2.000068431952085            0.000000091777255  
         10.761616368620745            2.000069780472546            0.000000277696420  
         10.882560584945995            2.000070777825859            0.000000066229658  
         11.003504801271244            2.000070367433483            0.000000522514549  
         11.124449017596495            2.000069792684510            0.000000418642946  
         11.245393233921744            2.000067387403783            0.000001442622400  
         11.366337450246995            2.000065618224470            0.000001156006874  
         11.487281666572246            2.000061999957428            0.000002077716471  
         11.608225882897495            2.000059629266213            0.000001151335753  
         11.729170099222745            2.000055639505653            0.000001285962225  
         11.850114315547994            2.000052137357292            0.000000420554942  
         11.971058531873245            2.000047370718975            0.000000354018030  
         12.092002748198494            2.000042368177200            0.000000106960161  
         12.212946964523745            2.000036619132168            0.000000241719570  
         12.333891180848996            2.000030598253149            0.000000337330673  
         12.454835397174245            2.000023951998702            0.000000800922597  
         12.575779613499495            2.000016757851575            0.000001608620310  
         12.696723829824744            2.000010044026570            0.000001784674742  
         12.817668046149995            2.000002481094529            0.000002712812651  
         12.938612262475244            1.999996930915470            0.000001586042392  
         13.059556478800495            1.999990120629142            0.000001732207195  
         13.180500695125746            1.999984769263573            0.000000486393483  
         13.301444911450995            1.999978320982398            0.000000457126560  
         13.422389127776245            1.999972391576535            0.000000082530592  
         13.543333344101494            1.999966119282106            0.000000278919098  
         13.664277560426745            1.999960318398766            0.000000286623146  
         13.785221776751994            1.999954208446585            0.000000939623995  
         13.906165993077245            1.999948554627323            0.000001523155915  
         14.027110209402496            1.999943361882952            0.000002082623883  
         14.148054425727745            1.999938675781386            0.000002621758084  
         14.268998642052996            1.999935807210632            0.000001877359283  
         14.389942858378244            1.999932899482126            0.000001751088947  
         14.510887074703495            1.999931618364589            0.000000616416576  
         14.631831291028744            1.999929920994024            0.000000553037623  
         14.752775507353995            1.999929281618176            0.000000118011650  
         14.873719723679246            1.999928724947447            0.000000314247883  
         14.994663940004495            1.999929130913832            0.000000281825536  
         15.115608156329746            1.999929582870535            0.000000949017656  
         15.236552372654995            1.999931242932125            0.000001156987576  
         15.357496588980245            1.999932868451634            0.000002142800439  
         15.478440805305494            1.999936377812119            0.000001973726504  
         15.599385021630745            1.999940266046921            0.000002131475332  
         15.720329237955996            1.999945693054183            0.000001420772873  
         15.841273454281245            1.999951557833672            0.000000897773198  
         15.962217670606496            1.999957812854443            0.000000553210594  
         16.083161886931745            1.999964586068276            0.000000195047455  
         16.204106103256994            1.999971235216482            0.000000392553298  
         16.325050319582246            1.999978614376389            0.000000211834068  
         16.445994535907495            1.999985296523052            0.000000993308122  
         16.566938752232744            1.999992977720149            0.000000947604012  
         16.687882968557997            1.999999446107755            0.000002190693149  
         16.808827184883246            2.000007388048879            0.000001938475345  
         16.929771401208495            2.000014553714160            0.000002345264176  
         17.050715617533744            2.000022583123530            0.000001677717069  
         17.171659833858996            2.000030244984376            0.000001077220414  
         17.292604050184245            2.000037283620836            0.000000714081442  
         17.413548266509494            2.000043983786161            0.000000224203521  
         17.534492482834747            2.000049476488190            0.000000406431776  
         17.655436699159996            2.000054756046107            0.000000207067267  
         17.776380915485245            2.000058360889987            0.000001038622790  
         17.897325131810494            2.000062057277491            0.000001094542765  
         18.018269348135746            2.000063392182266            0.000002795636524  
         18.139213564460995            2.000066004481718            0.000002481030924  
         18.260157780786244            2.000066420037007            0.000003613746301  
         18.381101997111497            2.000068788960772            0.000002045487056  
         18.502046213436746            2.000068903927612            0.000001991972984  
         18.622990429761995            2.000069697132791            0.000000536767835  
         18.743934646087244            2.000068332496379            0.000000534549426  
         18.864878862412496            2.000066732374094            0.000000090948441  
         18.985823078737745            2.000063620249984            0.000000517353595  
         19.106767295062994            2.000060304611358            0.000000547057108  
         19.227711511388247            2.000054783916159            0.000002224976494  
         19.348655727713496            2.000050034195878            0.000002618757242  
         19.469599944038745            2.000043032799080            0.000004796031272  
         19.590544160363994            2.000038586552967            0.000004000122910  
         19.711488376689246            2.000033083588369            0.000003895790137  
         19.832432593014495            2.000028923338152            0.000002138460981  
         19.953376809339744            2.000023884844790            0.000001001430482  
         20.074321025664997            2.000018067958515            0.000000435759366  
         20.195265241990246            2.000011815850529            0.000000151320551  
         20.316209458315495            2.000004967145175            0.000000365220994  
         20.437153674640744            1.999998010691498            0.000000645449171  
         20.558097890965996            1.999989653982167            0.000002339405192  
         20.679042107291245            1.999982417770841            0.000002977555057  
         20.799986323616494            1.999973366497604            0.000005548242511  
         20.920930539941747            1.999968112827166            0.000004493120390  
         21.041874756266996            1.999961896669545            0.000004629016990  
         21.162818972592245            1.999958406787771            0.000002321999358  
         21.283763188917494            1.999953961204735            0.000001304090950  
         21.404707405242746            1.999949751245405            0.000000434447881  
         21.525651621567995            1.999945288369333            0.000000251731049  
         21.646595837893244            1.999941090435322            0.000000290625242  
         21.767540054218497            1.999936957417159            0.000000800537864  
         21.888484270543746            1.999932838655766            0.000001874230569  
         22.009428486868995            1.999929266498123            0.000003017980570  
         22.130372703194244            1.999925861607400            0.000004646438030  
         22.251316919519496            1.999925132245452            0.000004285379260  
         22.372261135844745            1.999924834315186            0.000004208628108  
         22.493205352169994            1.999927152663327            0.000002249703046  
         22.614149568495247            1.999928995143547            0.000001511562472  
         22.735093784820496            1.999931871398076            0.000000485170588  
         22.856038001145745            1.999934581116154            0.000000367956342  
         22.976982217470994            1.999937883822748            0.000000388292653  
         23.097926433796246            1.999941620819415            0.000000682425103  
         23.218870650121495            1.999945339717367            0.000001667686907  
         23.339814866446744            1.999949953980383            0.000002381908647  
         23.460759082771997            1.999954199896135            0.000004033820081  
         23.581703299097246            1.999961111954234            0.000003524678520  
         23.702647515422495            1.999967368973069            0.000004105358513  
         23.823591731747744            1.999976614354036            0.000002052955910  
         23.944535948072996            1.999984304383419            0.000001822620491  
         24.065480164398245            1.999993260110585            0.000000499380594  
         24.186424380723494            2.000000950277865            0.000000517519011  
         24.307368597048747            2.000008800235194            0.000000356098214  
         24.428312813373996            2.000016073348519            0.000000657661375  
         24.549257029699245            2.000022537011525            0.000001561843114  
         24.670201246024494            2.000028890000124            0.000002279186172  
         24.791145462349750            2.000033587992605            0.000004265873405  
         24.912089678674999            2.000040124670986            0.000003949249270  
         25.033033895000248            2.000044859848454            0.000004899802699  
         25.153978111325497            2.000052176921338            0.000002677363975  
         25.274922327650749            2.000056989384668            0.000002318242848  
         25.395866543975998            2.000062471055775            0.000000607003775  
         25.516810760301247            2.000065547308475            0.000000582218191  
         25.637754976626500            2.000068246008167            0.000000194777746  
         25.758699192951749            2.000069224274518            0.000000779176370  
         25.879643409276998            2.000069589375443            0.000001231085315  
         26.000587625602247            2.000067427217544            0.000003474375477  
         26.121531841927499            2.000065768984936            0.000004487908970  
         26.242476058252748            2.000061907290511            0.000006997805122  
         26.363420274577997            2.000061333193907            0.000005541581625  
         26.484364490903250            2.000058864691296            0.000005338818484  
         26.605308707228499            2.000058790180669            0.000002144834155  
         26.726252923553748            2.000055711646796            0.000001396095892  
         26.847197139878997            2.000052588538371            0.000000174695357  
         26.968141356204249            2.000047592716281            0.000000353512736  
         27.089085572529498            2.000042429741766            0.000000280631538  
