#           time (fs)    |     mu_x (e.angstrom)   |     mu_y (e.angstrom)   |     mu_z (e.angstrom)   |
        0.000000000000000       -0.000000000000000       -0.000000000000000        0.000000000000000
        0.002418884326505        0.000000004925181        0.000000007275484        0.000047381027122
        0.004837768653010        0.000000109720380        0.000000162047010        0.000527706209292
        0.007256652979515        0.000000314157554        0.000000463985778        0.001007293105150
        0.009675537306020        0.000000795065127        0.000001174237937        0.001911893238116
        0.012094421632525        0.000001462367966        0.000002159787967        0.002813203488766
        0.014513305959030        0.000002571848609        0.000003798380792        0.004122883297244
        0.016932190285535        0.000003948161155        0.000005831070263        0.005424964035368
        0.019351074612040        0.000005914098359        0.000008734559883        0.007110351877152
        0.021769958938545        0.000008217871530        0.000012137007380        0.008782175915605
        0.024188843265050        0.000011233574464        0.000016590871788        0.010804272633825
        0.026607727591555        0.000014645817706        0.000021630376828        0.012805329864757
        0.029026611918060        0.000018860948756        0.000027855601918        0.015116244928968
        0.031445496244565        0.000023516485042        0.000034731212329        0.017397317823335
        0.033864380571070        0.000029029163488        0.000042872610957        0.019941178932064
        0.036283264897575        0.000035009130533        0.000051704027982        0.022445287520004
        0.038702149224080        0.000041859434499        0.000061820623244        0.025159306747290
        0.041121033550585        0.000049185244230        0.000072639261360        0.027822805511052
        0.043539917877090        0.000057350299001        0.000084697016372        0.030638482433052
        0.045958802203595        0.000065979232233        0.000097439484104        0.033392289044621
        0.048377686530100        0.000075370035431        0.000111306605799        0.036236729106201
        0.050796570856605        0.000085192610483        0.000125810817769        0.039007662906472
        0.053215455183110        0.000095652704583        0.000141255803040        0.041804987581426
        0.055634339509615        0.000106491918256        0.000157259873401        0.044517194116723
        0.058053223836120        0.000117797979488        0.000173952403634        0.047190018155873
        0.060472108162625        0.000129410477336        0.000191096408281        0.049766454931540
        0.062890992489130        0.000141274847933        0.000208611134226        0.052237405143084
        0.065309876815635        0.000153354038752        0.000226441764792        0.054601362983038
        0.067728761142140        0.000165429187357        0.000244264958786        0.056794612505351
        0.070147645468645        0.000177610274833        0.000262243026544        0.058871246479118
        0.072566529795150        0.000189495128124        0.000279782014359        0.060714038346888
        0.074985414121655        0.000201361990907        0.000297292697488        0.062431882106220
        0.077404298448160        0.000212610038339        0.000313887918302        0.063856016045459
        0.079823182774665        0.000223703848774        0.000330253582546        0.065148453578461
        0.082242067101170        0.000233832882166        0.000345193063608        0.066091710378990
        0.084660951427675        0.000243662313751        0.000359688424804        0.066898379634890
        0.087079835754180        0.000252165624379        0.000372224398090        0.067305858142612
        0.089498720080685        0.000260218459109        0.000384093736539        0.067573961716236
        0.091917604407190        0.000266577277651        0.000393461069132        0.067399304480502
        0.094336488733695        0.000272333187263        0.000401937151112        0.067084803598898
        0.096755373060200        0.000276030116819        0.000407373210217        0.066291288533990
        0.099174257386705        0.000278974357363        0.000411697522551        0.065359957994474
        0.101593141713210        0.000279507517800        0.000412463051290        0.063921435105919
        0.104012026039715        0.000279145245814        0.000411906911945        0.062349758613550
        0.106430910366220        0.000276042819902        0.000407307454728        0.060251412934469
        0.108849794692725        0.000271913711962        0.000401193527444        0.058027300509331
        0.111268679019230        0.000264748561305        0.000390600915165        0.055266224913230
        0.113687563345735        0.000256441398149        0.000378324630482        0.052389536700571
        0.116106447672240        0.000244845401144        0.000361198017401        0.048975101209288
        0.118525331998745        0.000232012264088        0.000342248387521        0.045457965122835
        0.120944216325250        0.000215690020167        0.000318154324647        0.041411972691149
        0.123363100651755        0.000198059742419        0.000292133636313        0.037278886818612
        0.125781984978260        0.000176801287720        0.000260764671233        0.032635509300499
        0.128200869304765        0.000154191807259        0.000227406550072        0.027923223837915
        0.130619753631270        0.000127883997278        0.000188597860937        0.022728715845449
        0.133038637957775        0.000100213271779        0.000147783222679        0.017485893413520
        0.135457522284280        0.000068849506749        0.000101526824488        0.011798085964059
        0.137876406610785        0.000036144674591        0.000053297262931        0.006084743382029
        0.140295290937290       -0.000000167326883       -0.000000246633297       -0.000027676529747
        0.142714175263795       -0.000037762822506       -0.000055678425456       -0.006140937706706
        0.145133059590300       -0.000078795457467       -0.000116173266480       -0.012599351310549
        0.147551943916805       -0.000121017023035       -0.000178416391073       -0.019032314079279
        0.149970828243310       -0.000166419655550       -0.000245344651015       -0.025749284546729
        0.152389712569815       -0.000212879173602       -0.000313826493554       -0.032413270306444
        0.154808596896320       -0.000262177561010       -0.000386488791282       -0.039293828098000
        0.157227481222825       -0.000312363628140       -0.000460455314639       -0.046093016315240
        0.159646365549330       -0.000364962023380       -0.000537973434495       -0.053036095074746
        0.162065249875835       -0.000418242882521       -0.000616493408334       -0.059868986987548
        0.164484134202340       -0.000473428855250       -0.000697817299718       -0.066768986210252
        0.166903018528845       -0.000529058046557       -0.000779790516461       -0.073529988288132
        0.169321902855350       -0.000586010007137       -0.000863709266174       -0.080278436848751
        0.171740787181855       -0.000643134703815       -0.000947878712912       -0.086859537768477
        0.174159671508360       -0.000700932057072       -0.001033035402916       -0.093346830820870
        0.176578555834865       -0.000758603996629       -0.001118003278149       -0.099639344315357
        0.178997440161370       -0.000816239798153       -0.001202913562012       -0.105756525053068
        0.181416324487875       -0.000873428666961       -0.001287160947803       -0.111652870119811
        0.183835208814380       -0.000929824604525       -0.001370235102957       -0.117293427382074
        0.186254093140885       -0.000985433685174       -0.001452145028235       -0.122688916957809
        0.188672977467390       -0.001039457162369       -0.001531713169207       -0.127750569629653
        0.191091861793895       -0.001092341009479       -0.001609596729437       -0.132545178898641
        0.193510746120400       -0.001142824068024       -0.001683936800298       -0.136931618431714
        0.195929630446905       -0.001191807939130       -0.001756061933222       -0.141031704383416
        0.198348514773410       -0.001237567720561       -0.001823430036100       -0.144654267503391
        0.200767399099915       -0.001281468454155       -0.001888052493440       -0.147974212144062
        0.203186283426420       -0.001321328870405       -0.001946715054823       -0.150753456867246
        0.205605167752925       -0.001358976873033       -0.002002111056150       -0.153217207583038
        0.208024052079430       -0.001391791128473       -0.002050378284228       -0.155084367008521
        0.210442936405935       -0.001422053106558       -0.002094878292468       -0.156626848953144
        0.212861820732440       -0.001446726691159       -0.002131138337794       -0.157525138912180
        0.215280705058945       -0.001468528740812       -0.002163161356700       -0.158093515943203
        0.217699589385450       -0.001484042495019       -0.002185914555672       -0.157979274473171
        0.220118473711955       -0.001496393144588       -0.002204002319027       -0.157534037093113
        0.222537358038460       -0.001501825981519       -0.002211894876169       -0.156377675868841
        0.224956242364965       -0.001503838767231       -0.002214745277576       -0.154893536854157
        0.227375126691470       -0.001498389627337       -0.002206601729321       -0.152680287169078
        0.229794011017975       -0.001489304772854       -0.002193100831231       -0.150146868107539
        0.232212895344480       -0.001472313380897       -0.002167954632026       -0.146877306764307
        0.234631779670985       -0.001451518147664       -0.002137206594357       -0.143299601580097
        0.237050663997490       -0.001422484142846       -0.002094328176393       -0.138989945129747
        0.239469548323995       -0.001389531420955       -0.002045682459578       -0.134388549855374
        0.241888432650500       -0.001348131439214       -0.001984604141124       -0.129070709006725
        0.244307316977005       -0.001302756159155       -0.001917679366481       -0.123481810544470
        0.246726201303510       -0.001248858463269       -0.001838216521145       -0.117203200223263
        0.249145085630015       -0.001190991428495       -0.001752920413351       -0.110678320589265
        0.251563969956520       -0.001124667707494       -0.001655188363672       -0.103501425010808
        0.253982854283025       -0.001054446477077       -0.001551733255775       -0.096106921513694
        0.256401738609530       -0.000975980472302       -0.001436159418892       -0.088108617674295
        0.258820622936035       -0.000893756962461       -0.001315072868982       -0.079924943569625
        0.261239507262540       -0.000803649623634       -0.001182403758851       -0.071195590673868
        0.263658391589045       -0.000709994146768       -0.001044533908176       -0.062316324961859
        0.266077275915550       -0.000608965077351       -0.000895836686319       -0.052958631384959
        0.268496160242055       -0.000504666596751       -0.000742352079484       -0.043489290478280
        0.270915044568560       -0.000393651612917       -0.000579010442772       -0.033616973809169
        0.273333928895065       -0.000279714059608       -0.000411394129748       -0.023673621682946
        0.275752813221570       -0.000159858759894       -0.000235098426916       -0.013409881098936
        0.278171697548075       -0.000037493333463       -0.000055136271503       -0.003117558143565
        0.280590581874580        0.000089857345170        0.000132132152519        0.007406618266267
        0.283009466201085        0.000219243889464        0.000322368924850        0.017915624229991
        0.285428350527590        0.000352560071142        0.000518359048573        0.028563291631983
        0.287847234854095        0.000487381063470        0.000716536921480        0.039151305922919
        0.290266119180600        0.000624966147021        0.000918754813994        0.049781506380608
        0.292685003507105        0.000763474403450        0.001122306420208        0.060307431070131
        0.295103887833610        0.000903486866607        0.001328047134217        0.070777218722585
        0.297522772160115        0.001043797599139        0.001534204711508        0.081098568997184
        0.299941656486620        0.001184276091793        0.001740588880753        0.091265085470564
        0.302360540813125        0.001324393002096        0.001946422292920        0.101240067255368
        0.304779425139630        0.001463284355231        0.002150436919631        0.110962635200404
        0.307198309466135        0.001601128517143        0.002352895701119        0.120452231911899
        0.309617193792640        0.001736318230544        0.002551438534781        0.129594434305118
        0.312036078119145        0.001869759306191        0.002747397335963        0.138464470494705
        0.314454962445650        0.001999104024272        0.002937324170120        0.146896183611585
        0.316873846772155        0.002125993308583        0.003123630908707        0.155019333664953
        0.319292731098660        0.002247354750725        0.003301805058663        0.162618682396916
        0.321711615425165        0.002365559500051        0.003475331022073        0.169876393335453
        0.324130499751670        0.002476839280319        0.003638674194108        0.176531598744513
        0.326549384078175        0.002584277753144        0.003796365288644        0.182815897500352
        0.328968268404680        0.002683452504205        0.003941909011339        0.188426988150004
        0.331387152731185        0.002778129125506        0.004080837317562        0.193642145422846
        0.333806037057690        0.002863285332664        0.004205774078695        0.198122506057883
        0.336224921384195        0.002943325387841        0.004323188848886        0.202186530978899
        0.338643805710700        0.003012693340767        0.004424922067716        0.205464264519651
        0.341062690037205        0.003076376609578        0.004518299291486        0.208310206817425
        0.343481574363710        0.003128362890633        0.004594491256479        0.210329288356790
        0.345900458690215        0.003174155645286        0.004661580924940        0.211906327515742
        0.348319343016720        0.003207373593396        0.004710197841620        0.212627532032524
        0.350738227343225        0.003233958406976        0.004749068059356        0.212901836028211
        0.353157111669730        0.003247256023847        0.004768421382195        0.212303424828257
        0.355575995996235        0.003253558864718        0.004777498509912        0.211258764386539
        0.357994880322740        0.003246043664902        0.004766281776116        0.209336918820728
        0.360413764649245        0.003231257788735        0.004744385835268        0.206975026743700
        0.362832648975750        0.003202318135935        0.004701706276717        0.203744021489835
        0.365251533302255        0.003165924329091        0.004648080910275        0.200084690378908
        0.367670417628760        0.003115246847586        0.004573485192347        0.195576802466540
        0.370089301955265        0.003057029623177        0.004487821552667        0.190657718102215
        0.372508186281770        0.002984612324948        0.004381315074247        0.184922871851257
        0.374927070608275        0.002904671725818        0.004263769098640        0.178799183502626
        0.377345954934780        0.002810832550745        0.004125828385208        0.171904335576906
        0.379764839261285        0.002709591271704        0.003977031021077        0.164647968547475
        0.382183723587790        0.002594971799878        0.003808608850746        0.156676241326278
        0.384602607914295        0.002473177404792        0.003629668903295        0.148374961027518
        0.387021492240800        0.002338741566634        0.003432191922265        0.139424536401492
        0.389440376567305        0.002197463644330        0.003224691316940        0.130180777110500
        0.391859260893810        0.002044491325656        0.003000050023909        0.120363566542390
        0.394278145220315        0.001885113502008        0.002766031400676        0.110293041674930
        0.396697029546820        0.001715189017222        0.002516562507111        0.099733151862271
        0.399115913873325        0.001539395818849        0.002258509192240        0.088963266010473
        0.401534798199830        0.001354391305702        0.001986970494658        0.077795282683440
        0.403953682526335        0.001164149952969        0.001707779025349        0.066463368767856
        0.406372566852840        0.000966203826009        0.001417317054595        0.054830483995009
        0.408791451179345        0.000763741118468        0.001120262560419        0.043081891610521
        0.411210335505850        0.000555231804328        0.000814373399010        0.031133902420978
        0.413629219832355        0.000343006349227        0.000503068269283        0.019119965771208
        0.416048104158860        0.000126521613849        0.000185552048989        0.007011173895665
        0.418466988485365       -0.000092808263868       -0.000136101565214       -0.005112910423928
        0.420885872811870       -0.000314505999964       -0.000461191859293       -0.017225866367397
        0.423304757138375       -0.000538118241595       -0.000789055047827       -0.029303220087551
        0.425723641464880       -0.000762130120939       -0.001117469735442       -0.041263567604021
        0.428142525791385       -0.000987078305104       -0.001447224573441       -0.053137837453859
        0.430561410117890       -0.001210410227227       -0.001774577574133       -0.064790875488965
        0.432980294444395       -0.001433665745450       -0.002101788753962       -0.076308432882174
        0.435399178770900       -0.001653271910938       -0.002423621111595       -0.087503706533884
        0.437818063097405       -0.001871768298161       -0.002743800530250       -0.098515807442600
        0.440236947423910       -0.002084596417290       -0.003055646192261       -0.109109219637661
        0.442655831750415       -0.002295275132058       -0.003364319498521       -0.119474092446165
        0.445074716076920       -0.002498312565780       -0.003661772322698       -0.129329921132723
        0.447493600403425       -0.002698169472591       -0.003954546380491       -0.138914751377277
        0.449912484729930       -0.002888489541345       -0.004233327306300       -0.147907542250996
        0.452331369056435       -0.003074621320514       -0.004505957499869       -0.156590324746836
        0.454750253382940       -0.003249428999937       -0.004761980802982       -0.164606631457848
        0.457169137709445       -0.003419078699506       -0.005010437096290       -0.172277862367572
        0.459588022035950       -0.003575754922374       -0.005239874644774       -0.179217808522255
        0.462006906362455       -0.003726355872551       -0.005460405312773       -0.185781992401675
        0.464425790688960       -0.003862499673345       -0.005659747761582       -0.191560632441203
        0.466844675015465       -0.003991717006651       -0.005848939734751       -0.196937582171248
        0.469263559341970       -0.004105184778415       -0.006015053631866       -0.201486041334679
        0.471682443668475       -0.004210953837190       -0.006169888437575       -0.205611952065017
