#           time (fs)    |     mu_x (e.angstrom)   |     mu_y (e.angstrom)   |     mu_z (e.angstrom)   |
        0.000000000000000       -0.000000000000000       -0.000000000000000        0.000000000000000
        0.002418884326505        0.000000007386962        0.000000017407700       -0.000088920883481
        0.004837768653010        0.000000029550454        0.000000069634364       -0.000177877264061
        0.007256652979515        0.000000066133679        0.000000155843083       -0.000265413708560
        0.009675537306020        0.000000117269935        0.000000276341529       -0.000353012962826
        0.012094421632525        0.000000181782376        0.000000428365534       -0.000437806926685
        0.014513305959030        0.000000260421520        0.000000613672092       -0.000522717761716
        0.016932190285535        0.000000350754956        0.000000826543501       -0.000603510522558
        0.019351074612040        0.000000454615208        0.000001071281321       -0.000684499745152
        0.021769958938545        0.000000567917904        0.000001338280237       -0.000760151387835
        0.024188843265050        0.000000694005124        0.000001635393878       -0.000836102796617
        0.026607727591555        0.000000826796639        0.000001948318936       -0.000905609397129
        0.029026611918060        0.000000971520182        0.000002289347374       -0.000975540404540
        0.031445496244565        0.000001119820344        0.000002638819671       -0.001038048644821
        0.033864380571070        0.000001279122239        0.000003014200694       -0.001101124373985
        0.036283264897575        0.000001438591024        0.000003389993389       -0.001155943366660
        0.038702149224080        0.000001608085220        0.000003789391718       -0.001211488011337
        0.041121033550585        0.000001774170030        0.000004180777065       -0.001258098160686
        0.043539917877090        0.000001949288269        0.000004593428067       -0.001305603442948
        0.045958802203595        0.000002117374968        0.000004989533314       -0.001343662218381
        0.048377686530100        0.000002293515680        0.000005404593840       -0.001382792827467
        0.050796570856605        0.000002459079694        0.000005794757246       -0.001412137377343
        0.053215455183110        0.000002631756285        0.000006201655040       -0.001442733323596
        0.055634339509615        0.000002790510046        0.000006575773304       -0.001463379909762
        0.058053223836120        0.000002955494956        0.000006964546450       -0.001485455778746
        0.060472108162625        0.000003103528096        0.000007313405042       -0.001497596064685
        0.062890992489130        0.000003256989122        0.000007675023164       -0.001511337207788
        0.065309876815635        0.000003390897961        0.000007990601451       -0.001515331484977
        0.067728761142140        0.000003529523478        0.000008317260799       -0.001521087233054
        0.070147645468645        0.000003646526610        0.000008593004401       -0.001517454720192
        0.072566529795150        0.000003767636620        0.000008878389515       -0.001515728755460
        0.074985414121655        0.000003865673680        0.000009109443053       -0.001505135152816
        0.077404298448160        0.000003967313875        0.000009348948433       -0.001496573220328
        0.079823182774665        0.000004045124959        0.000009532342699       -0.001479815745841
        0.082242067101170        0.000004126141394        0.000009723248786       -0.001465190928853
        0.084660951427675        0.000004183325023        0.000009858037351       -0.001443181103114
        0.087079835754180        0.000004243417392        0.000009999636099       -0.001423376925750
        0.089498720080685        0.000004280465358        0.000010086977463       -0.001397121408915
        0.091917604407190        0.000004320217340        0.000010180643885       -0.001373113064137
        0.094336488733695        0.000004338525305        0.000010223826490       -0.001343692878678
        0.096755373060200        0.000004359410944        0.000010273033729       -0.001316526909217
        0.099174257386705        0.000004361264160        0.000010277442362       -0.001285075407668
        0.101593141713210        0.000004365629759        0.000010287719076       -0.001255848191680
        0.104012026039715        0.000004354163856        0.000010260742499       -0.001223528147900
        0.106430910366220        0.000004345185408        0.000010239572590       -0.001193363559480
        0.108849794692725        0.000004324322712        0.000010190453523       -0.001161343775017
        0.111268679019230        0.000004305939430        0.000010147119539       -0.001131370401919
        0.113687563345735        0.000004280301839        0.000010086749390       -0.001100802225784
        0.116106447672240        0.000004257126867        0.000010032122147       -0.001072130532707
        0.118525331998745        0.000004231926838        0.000009972784148       -0.001044124693082
        0.120944216325250        0.000004209136744        0.000009919062356       -0.001017824518551
        0.123363100651755        0.000004190048420        0.000009874127901       -0.000993428658683
        0.125781984978260        0.000004173253561        0.000009834532688       -0.000970507426961
        0.128200869304765        0.000004166266565        0.000009818116796       -0.000950684724982
        0.130619753631270        0.000004161364843        0.000009806547096       -0.000932066741670
        0.133038637957775        0.000004172623629        0.000009833129856       -0.000917675975393
        0.135457522284280        0.000004185640575        0.000009863785551       -0.000904183156775
        0.137876406610785        0.000004221272642        0.000009947807285       -0.000895960550115
        0.140295290937290        0.000004258191075        0.000010034787800       -0.000888294912001
        0.142714175263795        0.000004324127589        0.000010190226342       -0.000886838069921
        0.145133059590300        0.000004390710419        0.000010347113043       -0.000885566272382
        0.147551943916805        0.000004492503049        0.000010587052088       -0.000891320476627
        0.149970828243310        0.000004594112957        0.000010826483341       -0.000896860686906
        0.152389712569815        0.000004736750873        0.000011162681160       -0.000910107785964
        0.154808596896320        0.000004878170779        0.000011495929216       -0.000922719083661
        0.157227481222825        0.000005065901825        0.000011938397220       -0.000943569167829
        0.159646365549330        0.000005251160079        0.000012374956246       -0.000963343674791
        0.162065249875835        0.000005487320146        0.000012931556846       -0.000991729681839
        0.164484134202340        0.000005719524388        0.000013478751380       -0.001018587554713
        0.166903018528845        0.000006006378901        0.000014154824417       -0.001054262903953
        0.169321902855350        0.000006287562436        0.000014817447280       -0.001087950280799
        0.171740787181855        0.000006626163734        0.000015615473891       -0.001130489584357
        0.174159671508360        0.000006957148066        0.000016395462221       -0.001170579528852
        0.176578555834865        0.000007347212196        0.000017314774436       -0.001219382379177
        0.178997440161370        0.000007727489164        0.000018210931879       -0.001265278817500
        0.181416324487875        0.000008167295287        0.000019247475533       -0.001319576600632
        0.183835208814380        0.000008594931894        0.000020255247911       -0.001370521197881
        0.186254093140885        0.000009081247155        0.000021401405520       -0.001429386833350
        0.188672977467390        0.000009552815810        0.000022512716386       -0.001484468709100
        0.191091861793895        0.000010080848033        0.000023757195626       -0.001546829170432
        0.193510746120400        0.000010591384486        0.000024960347069       -0.001604997307498
        0.195929630446905        0.000011154764622        0.000026288139332       -0.001669648732822
        0.198348514773410        0.000011697755379        0.000027567782252       -0.001729726890204
        0.200767399099915        0.000012288551042        0.000028960194470       -0.001795352051100
        0.203186283426420        0.000012855951519        0.000030297371282       -0.001856055952082
        0.205605167752925        0.000013464712403        0.000031732132892       -0.001921243811256
        0.208024052079430        0.000014046996505        0.000033104394287       -0.001981200341360
        0.210442936405935        0.000014662831887        0.000034555839787       -0.002044467396490
        0.212861820732440        0.000015249073122        0.000035937435806       -0.002102235513995
        0.215280705058945        0.000015859761024        0.000037376761936       -0.002162048596756
        0.217699589385450        0.000016437744658        0.000038738906203       -0.002216141631262
        0.220118473711955        0.000017029871658        0.000040134501355       -0.002270941807405
        0.222537358038460        0.000017586236818        0.000041445705903       -0.002319850799860
        0.224956242364965        0.000018145366881        0.000042763547935       -0.002368077998806
        0.227375126691470        0.000018665776945        0.000043990024690       -0.002410295719858
        0.229794011017975        0.000019176647082        0.000045194141984       -0.002450413710628
        0.232212895344480        0.000019645986107        0.000046300265645       -0.002484458983341
        0.234631779670985        0.000020092726113        0.000047353254936       -0.002514980308094
        0.237050663997490        0.000020495318535        0.000048302080725       -0.002539422256106
        0.239469548323995        0.000020861691574        0.000049165674070       -0.002558932733071
        0.241888432650500        0.000021181541928        0.000049919502682       -0.002572414576264
        0.244307316977005        0.000021451202247        0.000050555174852       -0.002579596990441
        0.246726201303510        0.000021672251214        0.000051076155917       -0.002580859017056
        0.249145085630015        0.000021829014915        0.000051445762571       -0.002574515629522
        0.251563969956520        0.000021935407627        0.000051696527038       -0.002562416986282
        0.253982854283025        0.000021963532078        0.000051762963302       -0.002541490511188
        0.256401738609530        0.000021939894313        0.000051707274432       -0.002515029471154
        0.258820622936035        0.000021824361545        0.000051435142892       -0.002478622193069
        0.261239507262540        0.000021656079194        0.000051038555011       -0.002436954584359
        0.263658391589045        0.000021382878458        0.000050394831746       -0.002384345317227
        0.266077275915550        0.000021056375518        0.000049625345526       -0.002326800823935
        0.268496160242055        0.000020612780097        0.000048580032619       -0.002257459446078
        0.270915044568560        0.000020115790352        0.000047408735493       -0.002183555525382
        0.273333928895065        0.000019490623720        0.000045935488450       -0.002097154862119
        0.275752813221570        0.000018812451291        0.000044337168807       -0.002006608058033
        0.278171697548075        0.000017996337812        0.000042413887530       -0.001903032924051
        0.280590581874580        0.000017128101867        0.000040367611559       -0.001795767398030
        0.283009466201085        0.000016113697399        0.000037976983943       -0.001675120654997
        0.285428350527590        0.000015048556480        0.000035466624439       -0.001551273796009
        0.287847234854095        0.000013830754505        0.000032596612273       -0.001413879326330
        0.290266119180600        0.000012564106219        0.000029611319341       -0.001273804347420
        0.292685003507105        0.000011140215472        0.000026255577004       -0.001120206891842
        0.295103887833610        0.000009669867617        0.000022790181410       -0.000964472365855
        0.297522772160115        0.000008039757593        0.000018948398833       -0.000795434220086
        0.299941656486620        0.000006366067219        0.000015003739753       -0.000624820553498
        0.302360540813125        0.000004532278436        0.000010681902274       -0.000441315166362
        0.304779425139630        0.000002658255823        0.000006265072313       -0.000256808056276
        0.307198309466135        0.000000626072254        0.000001475631325       -0.000060010618484
        0.309617193792640       -0.000001442552671       -0.000003399867010        0.000137208416880
        0.312036078119145       -0.000003665070986       -0.000008637917282        0.000345933259237
        0.314454962445650       -0.000005919821665       -0.000013952108104        0.000554499142484
        0.316873846772155       -0.000008321847171       -0.000019613250873        0.000773612272802
        0.319292731098660       -0.000010751514127       -0.000025339717355        0.000991991246137
        0.321711615425165       -0.000013319502139       -0.000031392032168        0.001219796543657
        0.324130499751670       -0.000015910197968       -0.000037498046282        0.001446303450169
        0.326549384078175       -0.000018627978887       -0.000043903426489        0.001680967484431
        0.328968268404680       -0.000021363234431       -0.000050350175819        0.001913785202283
        0.331387152731185       -0.000024212147073       -0.000057064642939        0.002153358869808
        0.333806037057690       -0.000027073048012       -0.000063807552719        0.002390559618341
        0.336224921384195       -0.000030032112635       -0.000070781664353        0.002633001407626
        0.338643805710700       -0.000032997475028       -0.000077770811279        0.002872569617394
        0.341062690037205       -0.000036043603998       -0.000084950157670        0.003115770165169
        0.343481574363710       -0.000039090186656       -0.000092130770478        0.003355626581765
        0.345900458690215       -0.000042198429993       -0.000099456553244        0.003597434165527
        0.348319343016720       -0.000045301180939       -0.000106769593549        0.003835460839889
        0.350738227343225       -0.000048445003419       -0.000114179278717        0.004073707439232
        0.353157111669730       -0.000051577337072       -0.000121562094213        0.004307773245409
        0.355575995996235       -0.000054728922980       -0.000128990130348        0.004540300797838
        0.357994880322740       -0.000057863024178       -0.000136377171185        0.004768287112837
        0.360413764649245       -0.000060993605307       -0.000143755762236        0.004992973588559
        0.362832648975750       -0.000064100755793       -0.000151079350266        0.005212799768185
        0.365251533302255       -0.000067180957867       -0.000158339271760        0.005427584692892
        0.367670417628760       -0.000070231880447       -0.000165530411355        0.005637232982229
        0.370089301955265       -0.000073232082778       -0.000172601857724        0.005840142046976
        0.372508186281770       -0.000076197298020       -0.000179591076097        0.006037681574388
        0.374927070608275       -0.000079088000953       -0.000186404526306        0.006226849987112
        0.377345954934780       -0.000081938191038       -0.000193122730652        0.006410459506046
        0.379764839261285       -0.000084690385558       -0.000199609818878        0.006584153759924
        0.382183723587790       -0.000087396759739       -0.000205989157269        0.006752142823193
        0.384602607914295       -0.000089982293513       -0.000212083535178        0.006908780582368
        0.387021492240800       -0.000092516949550       -0.000218058247971        0.007059608858626
        0.389440376567305       -0.000094908883703       -0.000223696425161        0.007197776691588
        0.391859260893810       -0.000097245159659       -0.000229203673715        0.007330071162976
        0.394278145220315       -0.000099418110682       -0.000234325823147        0.007448539887506
        0.396697029546820       -0.000101530921588       -0.000239306482912        0.007561109700401
        0.399115913873325       -0.000103461382965       -0.000243857198611        0.007658847140957
        0.401534798199830       -0.000105327537047       -0.000248256604125        0.007750695918005
        0.403953682526335       -0.000106994175495       -0.000252185599116        0.007826876916184
        0.406372566852840       -0.000108592664968       -0.000255954229154        0.007897212376682
        0.408791451179345       -0.000109976586547       -0.000259216962496        0.007951225937244
        0.411210335505850       -0.000111288848349       -0.000262311054463        0.007999466713818
        0.413629219832355       -0.000112373830170       -0.000264869277307        0.008030920212068
        0.416048104158860       -0.000113383972469       -0.000267251361101        0.008056699793944
        0.418466988485365       -0.000114156656251       -0.000269073572969        0.008065420214686
        0.420885872811870       -0.000114851647091       -0.000270712915727        0.008068587991004
        0.423304757138375       -0.000115301691439       -0.000271774723618        0.008054620213329
        0.425723641464880       -0.000115671506486       -0.000272647678193        0.008035239633022
        0.428142525791385       -0.000115791695390       -0.000272932052643        0.007998841819174
        0.430561410117890       -0.000115829422387       -0.000273022304182        0.007957185726633
        0.432980294444395       -0.000115615728181       -0.000272519728089        0.007898821915763
        0.435399178770900       -0.000115317626415       -0.000271818434684        0.007835365162931
        0.437818063097405       -0.000114769226133       -0.000270526942413        0.007755695211318
        0.440236947423910       -0.000114134739948       -0.000269032767535        0.007671104686450
        0.442655831750415       -0.000113253984808       -0.000266957873626        0.007570971734112
        0.445074716076920       -0.000112285710940       -0.000264676909791        0.007466093984641
        0.447493600403425       -0.000111078049439       -0.000261831428386        0.007346509663585
        0.449912484729930       -0.000109781658703       -0.000258777013286        0.007222356324747
        0.452331369056435       -0.000108255514579       -0.000255180771197        0.007084483955898
        0.454750253382940       -0.000106639629191       -0.000251373199283        0.006942215227542
        0.457169137709445       -0.000104806236246       -0.000247052647407        0.006787351281206
        0.459588022035950       -0.000102882264812       -0.000242518781675        0.006628257722081
        0.462006906362455       -0.000100755461328       -0.000237506511132        0.006457811840245
        0.464425790688960       -0.000098537394203       -0.000232279301476        0.006283294771619
        0.466844675015465       -0.000096133380362       -0.000226613472479        0.006098768669067
        0.469263559341970       -0.000093637548787       -0.000220731388597        0.005910319497521
        0.471682443668475       -0.000090974611108       -0.000214455081532        0.005713285072555
