#     time (fs)  |  E_x (eV/ang)  | E_y (eV/ang) | E_z (eV/ang)
     0.00000000     0.00000000     0.00000000     0.00000000
     0.00241888     0.10194074     0.00000000     0.10194074
     0.00483777     0.20358157     0.00000000     0.20358157
     0.00725665     0.30462347     0.00000000     0.30462347
     0.00967554     0.40476917     0.00000000     0.40476917
     0.01209442     0.50372406     0.00000000     0.50372406
     0.01451331     0.60119700     0.00000000     0.60119700
     0.01693219     0.69690123     0.00000000     0.69690123
     0.01935107     0.79055519     0.00000000     0.79055519
     0.02176996     0.88188337     0.00000000     0.88188337
     0.02418884     0.97061706     0.00000000     0.97061706
     0.02660773     1.05649522     0.00000000     1.05649522
     0.02902661     1.13926520     0.00000000     1.13926520
     0.03144550     1.21868349     0.00000000     1.21868349
     0.03386438     1.29451644     0.00000000     1.29451644
     0.03628326     1.36654096     0.00000000     1.36654096
     0.03870215     1.43454514     0.00000000     1.43454514
     0.04112103     1.49832893     0.00000000     1.49832893
     0.04353992     1.55770467     0.00000000     1.55770467
     0.04595880     1.61249769     0.00000000     1.61249769
     0.04837769     1.66254677     0.00000000     1.66254677
     0.05079657     1.70770468     0.00000000     1.70770468
     0.05321546     1.74783857     0.00000000     1.74783857
     0.05563434     1.78283036     0.00000000     1.78283036
     0.05805322     1.81257711     0.00000000     1.81257711
     0.06047211     1.83699129     0.00000000     1.83699129
     0.06289099     1.85600110     0.00000000     1.85600110
     0.06530988     1.86955060     0.00000000     1.86955060
     0.06772876     1.87759992     0.00000000     1.87759992
     0.07014765     1.88012539     0.00000000     1.88012539
     0.07256653     1.87711958     0.00000000     1.87711958
     0.07498541     1.86859133     0.00000000     1.86859133
     0.07740430     1.85456572     0.00000000     1.85456572
     0.07982318     1.83508404     0.00000000     1.83508404
     0.08224207     1.81020358     0.00000000     1.81020358
     0.08466095     1.77999754     0.00000000     1.77999754
     0.08707984     1.74455480     0.00000000     1.74455480
     0.08949872     1.70397961     0.00000000     1.70397961
     0.09191760     1.65839137     0.00000000     1.65839137
     0.09433649     1.60792417     0.00000000     1.60792417
     0.09675537     1.55272650     0.00000000     1.55272650
     0.09917426     1.49296075     0.00000000     1.49296075
     0.10159314     1.42880275     0.00000000     1.42880275
     0.10401203     1.36044124     0.00000000     1.36044124
     0.10643091     1.28807735     0.00000000     1.28807735
     0.10884979     1.21192396     0.00000000     1.21192396
     0.11126868     1.13220513     0.00000000     1.13220513
     0.11368756     1.04915537     0.00000000     1.04915537
     0.11610645     0.96301903     0.00000000     0.96301903
     0.11852533     0.87404950     0.00000000     0.87404950
     0.12094422     0.78250855     0.00000000     0.78250855
     0.12336310     0.68866547     0.00000000     0.68866547
     0.12578198     0.59279636     0.00000000     0.59279636
     0.12820087     0.49518325     0.00000000     0.49518325
     0.13061975     0.39611333     0.00000000     0.39611333
     0.13303864     0.29587805     0.00000000     0.29587805
     0.13545752     0.19477231     0.00000000     0.19477231
     0.13787641     0.09309355     0.00000000     0.09309355
     0.14029529    -0.00885909    -0.00000000    -0.00885909
     0.14271418    -0.11078566    -0.00000000    -0.11078566
     0.14513306    -0.21238631    -0.00000000    -0.21238631
     0.14755194    -0.31336212    -0.00000000    -0.31336212
     0.14997083    -0.41341603    -0.00000000    -0.41341603
     0.15238971    -0.51225367    -0.00000000    -0.51225367
     0.15480860    -0.60958428    -0.00000000    -0.60958428
     0.15722748    -0.70512151    -0.00000000    -0.70512151
     0.15964637    -0.79858429    -0.00000000    -0.79858429
     0.16206525    -0.88969765    -0.00000000    -0.88969765
     0.16448413    -0.97819354    -0.00000000    -0.97819354
     0.16690302    -1.06381162    -0.00000000    -1.06381162
     0.16932190    -1.14629998    -0.00000000    -1.14629998
     0.17174079    -1.22541596    -0.00000000    -1.22541596
     0.17415967    -1.30092679    -0.00000000    -1.30092679
     0.17657856    -1.37261033    -0.00000000    -1.37261033
     0.17899744    -1.44025569    -0.00000000    -1.44025569
     0.18141632    -1.50366384    -0.00000000    -1.50366384
     0.18383521    -1.56264826    -0.00000000    -1.56264826
     0.18625409    -1.61703540    -0.00000000    -1.61703540
     0.18867298    -1.66666526    -0.00000000    -1.66666526
     0.19109186    -1.71139184    -0.00000000    -1.71139184
     0.19351075    -1.75108354    -0.00000000    -1.75108354
     0.19592963    -1.78562360    -0.00000000    -1.78562360
     0.19834851    -1.81491039    -0.00000000    -1.81491039
     0.20076740    -1.83885777    -0.00000000    -1.83885777
     0.20318628    -1.85739527    -0.00000000    -1.85739527
     0.20560517    -1.87046836    -0.00000000    -1.87046836
     0.20802405    -1.87803857    -0.00000000    -1.87803857
     0.21044294    -1.88008365     0.00000000    -1.88008365
     0.21286182    -1.87659756     0.00000000    -1.87659756
     0.21528071    -1.86759057     0.00000000    -1.86759057
     0.21769959    -1.85308917     0.00000000    -1.85308917
     0.22011847    -1.83313603     0.00000000    -1.83313603
     0.22253736    -1.80778985     0.00000000    -1.80778985
     0.22495624    -1.77712520     0.00000000    -1.77712520
     0.22737513    -1.74123229     0.00000000    -1.74123229
     0.22979401    -1.70021671     0.00000000    -1.70021671
     0.23221290    -1.65419914     0.00000000    -1.65419914
     0.23463178    -1.60331496     0.00000000    -1.60331496
     0.23705066    -1.54771386     0.00000000    -1.54771386
     0.23946955    -1.48755943     0.00000000    -1.48755943
     0.24188843    -1.42302863     0.00000000    -1.42302863
     0.24430732    -1.35431132     0.00000000    -1.35431132
     0.24672620    -1.28160965     0.00000000    -1.28160965
     0.24914509    -1.20513752     0.00000000    -1.20513752
     0.25156397    -1.12511991     0.00000000    -1.12511991
     0.25398285    -1.04179222     0.00000000    -1.04179222
     0.25640174    -0.95539961     0.00000000    -0.95539961
     0.25882062    -0.86619623     0.00000000    -0.86619623
     0.26123951    -0.77444453     0.00000000    -0.77444453
     0.26365839    -0.68041443     0.00000000    -0.68041443
     0.26607728    -0.58438256     0.00000000    -0.58438256
     0.26849616    -0.48663146     0.00000000    -0.48663146
     0.27091504    -0.38744870     0.00000000    -0.38744870
     0.27333393    -0.28712607     0.00000000    -0.28712607
     0.27575281    -0.18595873     0.00000000    -0.18595873
     0.27817170    -0.08424430     0.00000000    -0.08424430
     0.28059058     0.01771798     0.00000000     0.01771798
     0.28300947     0.11962813     0.00000000     0.11962813
     0.28542835     0.22118633     0.00000000     0.22118633
     0.28784723     0.32209381     0.00000000     0.32209381
     0.29026612     0.42205370     0.00000000     0.42205370
     0.29268500     0.52077192     0.00000000     0.52077192
     0.29510389     0.61795804     0.00000000     0.61795804
     0.29752277     0.71332614     0.00000000     0.71332614
     0.29994166     0.80659565     0.00000000     0.80659565
     0.30236054     0.89749218     0.00000000     0.89749218
     0.30477943     0.98574831     0.00000000     0.98574831
     0.30719831     1.07110439     0.00000000     1.07110439
     0.30961719     1.15330931     0.00000000     1.15330931
     0.31203608     1.23212122     0.00000000     1.23212122
     0.31445496     1.30730826     0.00000000     1.30730826
     0.31687385     1.37864923     0.00000000     1.37864923
     0.31929273     1.44593425     0.00000000     1.44593425
     0.32171162     1.50896537     0.00000000     1.50896537
     0.32413050     1.56755715     0.00000000     1.56755715
     0.32654938     1.62153721     0.00000000     1.62153721
     0.32896827     1.67074675     0.00000000     1.67074675
     0.33138715     1.71504099     0.00000000     1.71504099
     0.33380604     1.75428963     0.00000000     1.75428963
     0.33622492     1.78837719     0.00000000     1.78837719
     0.33864381     1.81720338     0.00000000     1.81720338
     0.34106269     1.84068341     0.00000000     1.84068341
     0.34348157     1.85874820     0.00000000     1.85874820
     0.34590046     1.87134459     0.00000000     1.87134459
     0.34831934     1.87843553     0.00000000     1.87843553
     0.35073823     1.88000016     0.00000000     1.88000016
     0.35315711     1.87603388     0.00000000     1.87603388
     0.35557600     1.86654835     0.00000000     1.86654835
     0.35799488     1.85157148     0.00000000     1.85157148
     0.36041376     1.83114733     0.00000000     1.83114733
     0.36283265     1.80533599     0.00000000     1.80533599
     0.36525153     1.77421340     0.00000000     1.77421340
     0.36767042     1.73787112     0.00000000     1.73787112
     0.37008930     1.69641606     0.00000000     1.69641606
     0.37250819     1.64997019     0.00000000     1.64997019
     0.37492707     1.59867014     0.00000000     1.59867014
     0.37734595     1.54266685     0.00000000     1.54266685
     0.37976484     1.48212507     0.00000000     1.48212507
     0.38218372     1.41722291     0.00000000     1.41722291
     0.38460261     1.34815132     0.00000000     1.34815132
     0.38702149     1.27511350     0.00000000     1.27511350
     0.38944038     1.19832433     0.00000000     1.19832433
     0.39185926     1.11800972     0.00000000     1.11800972
     0.39427815     1.03440595     0.00000000     1.03440595
     0.39669703     0.94775898     0.00000000     0.94775898
     0.39911591     0.85832373     0.00000000     0.85832373
     0.40153480     0.76636331     0.00000000     0.76636331
     0.40395368     0.67214827     0.00000000     0.67214827
     0.40637257     0.57595579     0.00000000     0.57595579
     0.40879145     0.47806886     0.00000000     0.47806886
     0.41121034     0.37877546     0.00000000     0.37877546
     0.41362922     0.27836771     0.00000000     0.27836771
     0.41604810     0.17714102     0.00000000     0.17714102
     0.41846699     0.07539317     0.00000000     0.07539317
     0.42088587    -0.02657647    -0.00000000    -0.02657647
     0.42330476    -0.12846793    -0.00000000    -0.12846793
     0.42572364    -0.22998144    -0.00000000    -0.22998144
     0.42814253    -0.33081835    -0.00000000    -0.33081835
     0.43056141    -0.43068200    -0.00000000    -0.43068200
     0.43298029    -0.52927860    -0.00000000    -0.52927860
     0.43539918    -0.62631807    -0.00000000    -0.62631807
     0.43781806    -0.72151493    -0.00000000    -0.72151493
     0.44023695    -0.81458911    -0.00000000    -0.81458911
     0.44265583    -0.90526678    -0.00000000    -0.90526678
     0.44507472    -0.99328119    -0.00000000    -0.99328119
     0.44749360    -1.07837338    -0.00000000    -1.07837338
     0.44991248    -1.16029303    -0.00000000    -1.16029303
     0.45233137    -1.23879913    -0.00000000    -1.23879913
     0.45475025    -1.31366070    -0.00000000    -1.31366070
     0.45716914    -1.38465752    -0.00000000    -1.38465752
     0.45958802    -1.45158072    -0.00000000    -1.45158072
     0.46200691    -1.51423339    -0.00000000    -1.51423339
     0.46442579    -1.57243123    -0.00000000    -1.57243123
     0.46684468    -1.62600302    -0.00000000    -1.62600302
     0.46926356    -1.67479114    -0.00000000    -1.67479114
     0.47168244    -1.71865207    -0.00000000    -1.71865207
     0.47410133    -1.75745677    -0.00000000    -1.75745677
     0.47652021    -1.79109107    -0.00000000    -1.79109107
     0.47893910    -1.81945603    -0.00000000    -1.81945603
     0.48135798    -1.84246819    -0.00000000    -1.84246819
     0.48377687    -1.86005985    -0.00000000    -1.86005985
     0.48619575    -1.87217927    -0.00000000    -1.87217927
     0.48861463    -1.87879078    -0.00000000    -1.87879078
     0.49103352    -1.87987493     0.00000000    -1.87987493
     0.49345240    -1.87542854     0.00000000    -1.87542854
     0.49587129    -1.86546468     0.00000000    -1.86546468
     0.49829017    -1.85001267     0.00000000    -1.85001267
     0.50070906    -1.82911797     0.00000000    -1.82911797
     0.50312794    -1.80284205     0.00000000    -1.80284205
     0.50554682    -1.77126221     0.00000000    -1.77126221
     0.50796571    -1.73447137     0.00000000    -1.73447137
     0.51038459    -1.69257774     0.00000000    -1.69257774
     0.51280348    -1.64570460     0.00000000    -1.64570460
     0.51522236    -1.59398984     0.00000000    -1.59398984
     0.51764125    -1.53758559     0.00000000    -1.53758559
     0.52006013    -1.47665781     0.00000000    -1.47665781
     0.52247901    -1.41138574     0.00000000    -1.41138574
     0.52489790    -1.34196140     0.00000000    -1.34196140
     0.52731678    -1.26858904     0.00000000    -1.26858904
     0.52973567    -1.19148453     0.00000000    -1.19148453
     0.53215455    -1.11087470     0.00000000    -1.11087470
     0.53457344    -1.02699671     0.00000000    -1.02699671
     0.53699232    -0.94009731     0.00000000    -0.94009731
     0.53941120    -0.85043217     0.00000000    -0.85043217
     0.54183009    -0.75826508     0.00000000    -0.75826508
     0.54424897    -0.66386720     0.00000000    -0.66386720
     0.54666786    -0.56751623     0.00000000    -0.56751623
     0.54908674    -0.46949564     0.00000000    -0.46949564
     0.55150563    -0.37009381     0.00000000    -0.37009381
     0.55392451    -0.26960317     0.00000000    -0.26960317
     0.55634340    -0.16831937     0.00000000    -0.16831937
     0.55876228    -0.06654037     0.00000000    -0.06654037
     0.56118116     0.03543438     0.00000000     0.03543438
     0.56360005     0.13730489     0.00000000     0.13730489
     0.56601893     0.23877145     0.00000000     0.23877145
     0.56843782     0.33953555     0.00000000     0.33953555
     0.57085670     0.43930075     0.00000000     0.43930075
     0.57327559     0.53777353     0.00000000     0.53777353
     0.57569447     0.63466420     0.00000000     0.63466420
     0.57811335     0.72968770     0.00000000     0.72968770
     0.58053224     0.82256448     0.00000000     0.82256448
     0.58295112     0.91302129     0.00000000     0.91302129
     0.58537001     1.00079201     0.00000000     1.00079201
     0.58778889     1.08561844     0.00000000     1.08561844
     0.59020778     1.16725099     0.00000000     1.16725099
     0.59262666     1.24544953     0.00000000     1.24544953
     0.59504554     1.31998398     0.00000000     1.31998398
     0.59746443     1.39063507     0.00000000     1.39063507
     0.59988331     1.45719495     0.00000000     1.45719495
     0.60230220     1.51946780     0.00000000     1.51946780
     0.60472108     1.57727041     0.00000000     1.57727041
     0.60713997     1.63043272     0.00000000     1.63043272
     0.60955885     1.67879835     0.00000000     1.67879835
     0.61197773     1.72222499     0.00000000     1.72222499
     0.61439662     1.76058489     0.00000000     1.76058489
     0.61681550     1.79376519     0.00000000     1.79376519
     0.61923439     1.82166828     0.00000000     1.82166828
     0.62165327     1.84421206     0.00000000     1.84421206
     0.62407216     1.86133022     0.00000000     1.86133022
     0.62649104     1.87297239     0.00000000     1.87297239
     0.62890992     1.87910432     0.00000000     1.87910432
     0.63132881     1.87970797     0.00000000     1.87970797
     0.63374769     1.87478156     0.00000000     1.87478156
     0.63616658     1.86433960     0.00000000     1.86433960
     0.63858546     1.84841279     0.00000000     1.84841279
     0.64100435     1.82704800     0.00000000     1.82704800
     0.64342323     1.80030808     0.00000000     1.80030808
     0.64584212     1.76827170     0.00000000     1.76827170
     0.64826100     1.73103310     0.00000000     1.73103310
     0.65067988     1.68870185     0.00000000     1.68870185
     0.65309877     1.64140248     0.00000000     1.64140248
     0.65551765     1.58927414     0.00000000     1.58927414
     0.65793654     1.53247020     0.00000000     1.53247020
     0.66035542     1.47115776     0.00000000     1.47115776
     0.66277431     1.40551722     0.00000000     1.40551722
     0.66519319     1.33574168     0.00000000     1.33574168
     0.66761207     1.26203642     0.00000000     1.26203642
     0.67003096     1.18461828     0.00000000     1.18461828
     0.67244984     1.10371502     0.00000000     1.10371502
     0.67486873     1.01956466     0.00000000     1.01956466
     0.67728761     0.93241477     0.00000000     0.93241477
     0.67970650     0.84252173     0.00000000     0.84252173
     0.68212538     0.75015002     0.00000000     0.75015002
     0.68454426     0.65557138     0.00000000     0.65557138
     0.68696315     0.55906407     0.00000000     0.55906407
     0.68938203     0.46091200     0.00000000     0.46091200
     0.69180092     0.36140395     0.00000000     0.36140395
     0.69421980     0.26083265     0.00000000     0.26083265
     0.69663869     0.15949399     0.00000000     0.15949399
     0.69905757     0.05768610     0.00000000     0.05768610
     0.70147645    -0.04429150    -0.00000000    -0.04429150
     0.70389534    -0.14613880    -0.00000000    -0.14613880
     0.70631422    -0.24755615    -0.00000000    -0.24755615
     0.70873311    -0.34824521    -0.00000000    -0.34824521
     0.71115199    -0.44790973    -0.00000000    -0.44790973
     0.71357088    -0.54625652    -0.00000000    -0.54625652
     0.71598976    -0.64299623    -0.00000000    -0.64299623
     0.71840864    -0.73784427    -0.00000000    -0.73784427
     0.72082753    -0.83052158    -0.00000000    -0.83052158
     0.72324641    -0.92075552    -0.00000000    -0.92075552
     0.72566530    -1.00828062    -0.00000000    -1.00828062
     0.72808418    -1.09283938    -0.00000000    -1.09283938
     0.73050307    -1.17418304    -0.00000000    -1.17418304
     0.73292195    -1.25207228    -0.00000000    -1.25207228
     0.73534084    -1.32627795    -0.00000000    -1.32627795
     0.73775972    -1.39658175    -0.00000000    -1.39658175
     0.74017860    -1.46277683    -0.00000000    -1.46277683
     0.74259749    -1.52466846    -0.00000000    -1.52466846
     0.74501637    -1.58207456    -0.00000000    -1.58207456
     0.74743526    -1.63482623    -0.00000000    -1.63482623
     0.74985414    -1.68276828    -0.00000000    -1.68276828
     0.75227303    -1.72575967    -0.00000000    -1.72575967
     0.75469191    -1.76367392    -0.00000000    -1.76367392
     0.75711079    -1.79639948    -0.00000000    -1.79639948
     0.75952968    -1.82384008    -0.00000000    -1.82384008
     0.76194856    -1.84591498    -0.00000000    -1.84591498
     0.76436745    -1.86255925    -0.00000000    -1.86255925
     0.76678633    -1.87372392    -0.00000000    -1.87372392
     0.76920522    -1.87937613    -0.00000000    -1.87937613
     0.77162410    -1.87949927     0.00000000    -1.87949927
     0.77404298    -1.87409296     0.00000000    -1.87409296
     0.77646187    -1.86317312     0.00000000    -1.86317312
     0.77888075    -1.84677187     0.00000000    -1.84677187
     0.78129964    -1.82493747     0.00000000    -1.82493747
     0.78371852    -1.79773414     0.00000000    -1.79773414
     0.78613741    -1.76524192     0.00000000    -1.76524192
