#           time (fs)    |     mu_x (e.angstrom)   |     mu_y (e.angstrom)   |     mu_z (e.angstrom)   |
        0.000000000000000       -0.000000000000000       -0.000000000000000        0.000000000000000
        0.002418884326505        0.000000002299800        0.000000002806559        0.000026735845453
        0.004837768653010        0.000000009198358        0.000000011229524        0.000053468287009
        0.007256652979515        0.000000020586584        0.000000025129239        0.000079760790710
        0.009675537306020        0.000000063728071        0.000000077800275        0.000185164795013
        0.012094421632525        0.000000124582970        0.000000152087614        0.000289537862510
        0.014513305959030        0.000000284246138        0.000000347011973        0.000550430758246
        0.016932190285535        0.000000487528369        0.000000595175033        0.000809086318255
        0.019351074612040        0.000000894160131        0.000001091603323        0.001298244218045
        0.021769958938545        0.000001381667790        0.000001686751519        0.001782900605448
        0.024188843265050        0.000002210629121        0.000002698763888        0.002566955856106
        0.026607727591555        0.000003167099135        0.000003866424577        0.003342771527577
        0.029026611918060        0.000004631354112        0.000005654000844        0.004480227491823
        0.031445496244565        0.000006276562841        0.000007662468914        0.005603854270166
        0.033864380571070        0.000008617504167        0.000010520277483        0.007143260866277
        0.036283264897575        0.000011196580946        0.000013668775168        0.008661069952366
        0.038702149224080        0.000014673244208        0.000017912984702        0.010639401869621
        0.041121033550585        0.000018445469223        0.000022517958932        0.012585924041081
        0.043539917877090        0.000023322442436        0.000028471443259        0.015027201055289
        0.045958802203595        0.000028548852546        0.000034851392361        0.017423819565807
        0.048377686530100        0.000035083234980        0.000042827758581        0.020338004704670
        0.050796570856605        0.000042013405350        0.000051287036517        0.023191935242077
        0.053215455183110        0.000050441207713        0.000061573955856        0.026574141580215
        0.055634339509615        0.000059299611263        0.000072386047508        0.029877728169203
        0.058053223836120        0.000069822016100        0.000085228405476        0.033707758769440
        0.060472108162625        0.000080794384863        0.000098619198219        0.037438107777023
        0.062890992489130        0.000093564299972        0.000114202602622        0.041680345874964
        0.065309876815635        0.000106784421502        0.000130334195373        0.045799312490576
        0.067728761142140        0.000121893759743        0.000148769386086        0.050402970713292
        0.070147645468645        0.000137431137404        0.000167724975910        0.054857503752296
        0.072566529795150        0.000154899243704        0.000189033668272        0.059757232348410
        0.074985414121655        0.000172748032769        0.000210804036303        0.064480074381265
        0.077404298448160        0.000192511654651        0.000234906700970        0.069596919566274
        0.079823182774665        0.000212581258128        0.000259378784624        0.074507650663999
        0.082242067101170        0.000234486421563        0.000286084822262        0.079750345713403
        0.084660951427675        0.000256594092553        0.000313032811519        0.084756750969630
        0.087079835754180        0.000280390202603        0.000342033523119        0.090023315042332
        0.089498720080685        0.000304255956159        0.000371112857591        0.095023048861974
        0.091917604407190        0.000329592394003        0.000401977543574        0.100202662031127
        0.094336488733695        0.000354836482855        0.000432722117357        0.105085176229547
        0.096755373060200        0.000381261919309        0.000464897564116        0.110060294026901
        0.099174257386705        0.000407405076143        0.000496720370045        0.114708992181350
        0.101593141713210        0.000434369667902        0.000529533904131        0.119357659160487
        0.104012026039715        0.000460836262956        0.000561731270789        0.123652236364271
        0.106430910366220        0.000487696841919        0.000594397480965        0.127850555645353
        0.108849794692725        0.000513821048437        0.000626156976470        0.131669480664291
        0.111268679019230        0.000539849356280        0.000657788123817        0.135294194903758
        0.113687563345735        0.000564884357188        0.000688200121240        0.138517290451826
        0.116106447672240        0.000589278315721        0.000717820178000        0.141448428874309
        0.118525331998745        0.000612408521443        0.000745892998270        0.143959504989321
        0.120944216325250        0.000634306462949        0.000772455176931        0.146083050696724
        0.123363100651755        0.000654662641367        0.000797133645848        0.147772545695717
        0.125781984978260        0.000673160350873        0.000819541200329        0.148983077142340
        0.128200869304765        0.000689837495056        0.000839728375865        0.149750660126458
        0.130619753631270        0.000704007837883        0.000856858375668        0.149953920227832
        0.133038637957775        0.000716085515431        0.000871440119459        0.149711008460648
        0.135457522284280        0.000725000338978        0.000882169814767        0.148826354231567
        0.137876406610785        0.000731565179911        0.000890041797233        0.147498497951931
        0.140295290937290        0.000734319090529        0.000893277108455        0.145461182944690
        0.142714175263795        0.000734488981339        0.000893373751331        0.142990269467890
        0.145133059590300        0.000730224508949        0.000888079331984        0.139753510851814
        0.147551943916805        0.000723173973133        0.000879404107178        0.136099739469335
        0.149970828243310        0.000711107552909        0.000864634346997        0.131636521721896
        0.152389712569815        0.000696093718475        0.000846290770150        0.126780101332593
        0.154808596896320        0.000675541846537        0.000821221030134        0.121084669630569
        0.157227481222825        0.000651930334923        0.000792443615628        0.115027192661682
        0.159646365549330        0.000622335199862        0.000756400923397        0.108116191596275
        0.162065249875835        0.000589625224737        0.000716585310317        0.100881641002188
        0.164484134202340        0.000550579084925        0.000669077698268        0.092794858549389
        0.166903018528845        0.000508427028797        0.000617809119501        0.084430209803740
        0.169321902855350        0.000459694601367        0.000558552765256        0.075230892774331
        0.171740787181855        0.000407935346565        0.000495632019606        0.065806279924314
        0.174159671508360        0.000349473500262        0.000424575352517        0.055580995418456
        0.176578555834865        0.000288138829965        0.000350041456122        0.045189419369035
        0.178997440161370        0.000220112930592        0.000267385427958        0.034047446871805
        0.181416324487875        0.000149446383732        0.000181534168293        0.022804014812594
        0.183835208814380        0.000072242724649        0.000087747951339        0.010876265077355
        0.186254093140885       -0.000007289618624       -0.000008854355891       -0.001083038144166
        0.188672977467390       -0.000093055763226       -0.000113022886179       -0.013645568959343
        0.191091861793895       -0.000180758977956       -0.000219531032766       -0.026165564330311
        0.193510746120400       -0.000274240020256       -0.000333050554738       -0.039193784390429
        0.195929630446905       -0.000369188806899       -0.000448337937754       -0.052102211756829
        0.198348514773410       -0.000469306452486       -0.000569895067300       -0.065411334486329
        0.200767399099915       -0.000570348551613       -0.000692557377108       -0.078521358591830
        0.203186283426420       -0.000675800445764       -0.000820564417094       -0.091913671725189
        0.205605167752925       -0.000781565054249       -0.000948929695108       -0.105026735156417
        0.208024052079430       -0.000890836458279       -0.001081538838155       -0.118294686255954
        0.210442936405935       -0.000999747604207       -0.001213683935339       -0.131203655645483
        0.212861820732440       -0.001111128000773       -0.001348807860326       -0.144133196121100
        0.215280705058945       -0.001221422752175       -0.001482581185672       -0.156625742704467
        0.217699589385450       -0.001333027204991       -0.001617919850946       -0.168999868394660
        0.220118473711955       -0.001442778523288       -0.001750970168994       -0.180862021038974
        0.222537358038460       -0.001552573560436       -0.001884043481506       -0.192464445644795
        0.224956242364965       -0.001659717560247       -0.002013854401887       -0.203484253523815
        0.227375126691470       -0.001765551306640       -0.002142040332599       -0.214103151283077
        0.229794011017975       -0.001867918643496       -0.002265970032756       -0.224074394044818
        0.232212895344480       -0.001967554889849       -0.002386547653430       -0.233506149469471
        0.234631779670985       -0.002062905958482       -0.002501873285842       -0.242232034465151
        0.237050663997490       -0.002154061813756       -0.002612070118485       -0.250284939241880
        0.239469548323995       -0.002240125394342       -0.002716036272928       -0.257581727662529
        0.241888432650500       -0.002320512116954       -0.002813079265325       -0.264079567257811
        0.244307316977005       -0.002395027046449       -0.002902949779477       -0.269780073224941
        0.246726201303510       -0.002462393581162       -0.002984119145314       -0.274565548012659
        0.249145085630015       -0.002523152947689       -0.003057231480495       -0.278522456550391
        0.251563969956520       -0.002575331605925       -0.003119916566330       -0.281460384041367
        0.253982854283025       -0.002620228863740       -0.003173737885949       -0.283549335162909
        0.256401738609530       -0.002655182475721       -0.003215494148112       -0.284529581115413
        0.258820622936035       -0.002682258759349       -0.003247678153945       -0.284651968060102
        0.261239507262540       -0.002698128501786       -0.003266284246925       -0.283592055045347
        0.263658391589045       -0.002705620287458       -0.003274727744723       -0.281677485262275
        0.266077275915550       -0.002700773259537       -0.003268241642100       -0.278524828009068
        0.268496160242055       -0.002687159390916       -0.003251139727751       -0.274533196240893
        0.270915044568560       -0.002660234886738       -0.003217952723110       -0.269266914298132
        0.273333928895065       -0.002624281863980       -0.003173851410761       -0.263190038628058
        0.275752813221570       -0.002574235185998       -0.003112738787358       -0.255822299142652
        0.278171697548075       -0.002515039527490       -0.003040583850271       -0.247685073710148
        0.280590581874580       -0.002441182118061       -0.002950750973551       -0.238261920981048
        0.283009466201085       -0.002358208557277       -0.002849931746153       -0.228122943763247
        0.285428350527590       -0.002260243207500       -0.002731054331646       -0.216724578146612
        0.287847234854095       -0.002153357495149       -0.002601441235933       -0.204676219104402
        0.290266119180600       -0.002031407431526       -0.002453698584181       -0.191416696064424
        0.292685003507105       -0.001900902582923       -0.002295673201778       -0.177584580203629
        0.295103887833610       -0.001755533337459       -0.002119773276883       -0.162610910832619
        0.297522772160115       -0.001602148298302       -0.001934249893195       -0.147152802205588
        0.299941656486620       -0.001434381434616       -0.001731445253761       -0.130643449107846
        0.302360540813125       -0.001259311330076       -0.001519882952306       -0.113747535084604
        0.304779425139630       -0.001070629318402       -0.001291976720466       -0.095910311605925
        0.307198309466135       -0.000875526689207       -0.001056381299277       -0.077792901245914
        0.309617193792640       -0.000667868482436       -0.000805722568571       -0.058862296902927
        0.312036078119145       -0.000454835180783       -0.000548637778096       -0.039764962158531
        0.314454962445650       -0.000230582323223       -0.000278106104179       -0.019998931923894
        0.316873846772155       -0.000002152020864       -0.000002593956258       -0.000185134828661
        0.319292731098660        0.000235894599849        0.000284427166629        0.020138596220293
        0.321711615425165        0.000476783070036        0.000574817009338        0.040387334132592
        0.324130499751670        0.000725435459845        0.000874477521776        0.060975387191999
        0.326549384078175        0.000975473468288        0.001175749010309        0.081363705949347
        0.328968268404680        0.001231197165332        0.001483780095516        0.101911512557001
        0.331387152731185        0.001486749701094        0.001791542206511        0.122134749526907
        0.333806037057690        0.001745712060423        0.002103313886977        0.142331283015856
        0.336224921384195        0.002002868401144        0.002412841459159        0.162080241973360
        0.338643805710700        0.002260993656973        0.002723429134985        0.181612931905690
        0.341062690037205        0.002515624410791        0.003029732221399        0.200578801097831
        0.343481574363710        0.002768654588156        0.003333991134009        0.219138544877332
        0.345900458690215        0.003016474187643        0.003631891807457        0.237017879435705
        0.348319343016720        0.003260034919668        0.003924538275448        0.254304066214289
        0.350738227343225        0.003496668647323        0.004208753701199        0.270803751951159
        0.353157111669730        0.003726338967872        0.004484451867022        0.286529216621630
        0.355575995996235        0.003947393612502        0.004749682359326        0.301371335376536
        0.357994880322740        0.004158778818810        0.005003135100510        0.315267164264153
        0.360413764649245        0.004359916083768        0.005244155801154        0.328193684933822
        0.362832648975750        0.004548722781313        0.005470198391026        0.340013799166863
        0.365251533302255        0.004725734571485        0.005681953142518        0.350791022807386
        0.367670417628760        0.004887847007861        0.005875648186434        0.360316469779742
        0.370089301955265        0.005036731698833        0.006053344113591        0.368739161317466
        0.372508186281770        0.005168288453684        0.006210076232809        0.375782048847326
        0.374927070608275        0.005285327185695        0.006349277491184        0.381677191772070
        0.377345954934780        0.005382797205604        0.006464846175713        0.386084203415541
        0.379764839261285        0.005464629146298        0.006561565273114        0.389314317371814
        0.382183723587790        0.005524886000470        0.006632274278568        0.390969750989531
        0.384602607914295        0.005568581391588        0.006683059329934        0.391435715647072
        0.387021492240800        0.005588974487517        0.006705800956348        0.390263991051254
        0.389440376567305        0.005592104146145        0.006707817198861        0.387907323403365
        0.391859260893810        0.005570525502113        0.006680149769152        0.383874909165099
        0.394278145220315        0.005531225307327        0.006631253652296        0.378679445939919
        0.396697029546820        0.005466170352825        0.006551470514157        0.371796160693993
        0.399115913873325        0.005383199137099        0.006450274698404        0.363789103346054
        0.401534798199830        0.005273819927136        0.006317463115687        0.354108753639303
        0.403953682526335        0.005146609132187        0.006163390773300        0.343361040814628
        0.406372566852840        0.004992758339280        0.005977479160302        0.330981366031479
        0.408791451179345        0.004821451808726        0.005770806080087        0.317607347715183
        0.411210335505850        0.004623715914890        0.005532598170915        0.302669253025314
        0.413629219832355        0.004409198295444        0.005274481330416        0.286825651825377
        0.416048104158860        0.004168918555975        0.004985676068271        0.269511722353670
        0.418466988485365        0.003912830970957        0.004678167552286        0.251395880356477
        0.420885872811870        0.003632110963281        0.004341363728299        0.231928183563657
        0.423304757138375        0.003336852903288        0.003987409137723        0.211775607500248
        0.425723641464880        0.003018551798813        0.003606094099366        0.190412805565121
        0.428142525791385        0.002687268530989        0.003209514900748        0.168494038052707
        0.430561410117890        0.002334979617701        0.002788036975419        0.145527847192315
        0.432980294444395        0.001971534825381        0.002353496577245        0.122144706846062
        0.435399178770900        0.001589549238344        0.001897021203818        0.097895755249695
        0.437818063097405        0.001198483038880        0.001429974895982        0.073377002741756
        0.440236947423910        0.000791739094949        0.000944424810921        0.048190152388648
        0.442655831750415        0.000378212014572        0.000451054054012        0.022886652361555
        0.445074716076920       -0.000047769034404       -0.000056965775927       -0.002874138207811
        0.447493600403425       -0.000478045153734       -0.000569833889297       -0.028594678664228
        0.449912484729930       -0.000917235766312       -0.001093125572037       -0.054551864034388
        0.452331369056435       -0.001358078617382       -0.001618112552616       -0.080310491250837
        0.454750253382940       -0.001804032526358       -0.002148987505973       -0.106078727731208
        0.457169137709445       -0.002248880376567       -0.002678269994864       -0.131491076793619
        0.459588022035950       -0.002694829378605       -0.003208662551739       -0.156683192059902
        0.462006906362455       -0.003136840561151       -0.003734089499965       -0.181365463505606
        0.464425790688960       -0.003575798715534       -0.004255680111856       -0.205598507569433
        0.466844675015465       -0.004007957749478       -0.004768898780444       -0.229173486448917
        0.469263559341970       -0.004432831127145       -0.005273244877032       -0.252074764586983
        0.471682443668475       -0.004848059634525       -0.005765833671240       -0.274177783987166
