#           time (fs)       | force (atom_1) (H/b)   |  force (atom_2) (H/b)  |           ...          |  force (atom_N) (H/b)  |
        0.000000000000000       -0.000000000000000       -0.000000000000000       -0.001977038000788       -0.000000000000000       -0.000000000000000        0.001977038000788
        0.120944216325250       -0.000015098464738        0.000019742393312       -0.004592946529596        0.000015098464488       -0.000019742393561        0.004592946529596
        0.241888432650500       -0.000043703893389        0.000066027296489       -0.007198256341894        0.000043703892734       -0.000066027297143        0.007198256341894
        0.362832648975750       -0.000094382265409        0.000130101662778       -0.009771018659305        0.000094382265215       -0.000130101662972        0.009771018659305
        0.483776865301000       -0.000160984940274        0.000216395195595       -0.012262506987999        0.000160984941787       -0.000216395194081        0.012262506987999
        0.604721081626250       -0.000228810306425        0.000337226682401       -0.014647618090682        0.000228810309216       -0.000337226679609        0.014647618090682
        0.725665297951500       -0.000331122112054        0.000454927957539       -0.016876504939186        0.000331122113008       -0.000454927956585        0.016876504939186
        0.846609514276750       -0.000438504486764        0.000594132318706       -0.018923235079941        0.000438504483599       -0.000594132321872        0.018923235079941
        0.967553730602000       -0.000528933923229        0.000770118415408       -0.020745640590658        0.000528933917933       -0.000770118420704        0.020745640590658
        1.088497946927250       -0.000665130466568        0.000912990800315       -0.022316450417102        0.000665130464169       -0.000912990802714        0.022316450417102
        1.209442163252500       -0.000785903208692        0.001075224514908       -0.023601690412662        0.000785903212683       -0.001075224510916        0.023601690412662
        1.330386379577750       -0.000878198480119        0.001260833287925       -0.024577787793151        0.000878198487651       -0.001260833280394        0.024577787793151
        1.451330595903000       -0.001010284567779        0.001392106015316       -0.025226183873999        0.001010284571617       -0.001392106011478        0.025226183873999
        1.572274812228250       -0.001109004785410        0.001532256497633       -0.025530223634790        0.001109004781579       -0.001532256501464        0.025530223634790
        1.693219028553500       -0.001180416670086        0.001666678612697       -0.025491185487701        0.001180416662068       -0.001666678620716        0.025491185487701
        1.814163244878750       -0.001259779141773        0.001750276562917       -0.025099498914747        0.001259779137151       -0.001750276567539        0.025099498914747
        1.935107461204000       -0.001306375959917        0.001817528374449       -0.024376102998701        0.001306375962606       -0.001817528371760        0.024376102998701
        2.056051677529250       -0.001329672064830        0.001850746171052       -0.023322065352277        0.001329672071527       -0.001850746164355        0.023322065352277
        2.176995893854500       -0.001321551962387        0.001854817091743       -0.021972306329450        0.001321551966524       -0.001854817087606        0.021972306329450
        2.297940110179750       -0.001297261248873        0.001809473970473       -0.020341932985640        0.001297261247557       -0.001809473971788        0.020341932985640
        2.418884326505000       -0.001248515929818        0.001722675799791       -0.018471525442186        0.001248515925762       -0.001722675803847        0.018471525442186
        2.539828542830250       -0.001144661355383        0.001624015677589       -0.016388820792776        0.001144661352642       -0.001624015680330        0.016388820792776
        2.660772759155500       -0.001044688164570        0.001456285787388       -0.014131908882017        0.001044688164881       -0.001456285787077        0.014131908882017
        2.781716975480750       -0.000914571892929        0.001255793552908       -0.011734374233551        0.000914571894639       -0.001255793551198        0.011734374233551
        2.902661191806000       -0.000728436674174        0.001053439329216       -0.009237880470975        0.000728436674902       -0.001053439328488        0.009237880470975
        3.023605408131250       -0.000560808435789        0.000779607427619       -0.006676823220468        0.000560808435786       -0.000779607427622        0.006676823220468
        3.144549624456500       -0.000361939285220        0.000490575800040       -0.004087502405266        0.000361939285380       -0.000490575799880        0.004087502405266
        3.265493840781750       -0.000117157407263        0.000208730510647       -0.001506544908205        0.000117157407413       -0.000208730510496        0.001506544908205
        3.386438057107000        0.000096458096989       -0.000137417470641        0.001044080730341       -0.000096458096917        0.000137417470713       -0.001044080730341
        3.507382273432250        0.000338327773119       -0.000480625629370        0.003535643511373       -0.000338327773363        0.000480625629127       -0.003535643511373
        3.628326489757500        0.000616595673268       -0.000805636317989        0.005945916828344       -0.000616595673715        0.000805636317542       -0.005945916828344
        3.749270706082750        0.000849326970078       -0.001186646326841        0.008252685421337       -0.000849326970037        0.001186646326883       -0.008252685421337
        3.870214922408000        0.001105856344878       -0.001546917871249        0.010437445312419       -0.001105856345036        0.001546917871091       -0.010437445312419
        3.991159138733250        0.001390025857348       -0.001875006149590        0.012482774705717       -0.001390025858364        0.001875006148573       -0.012482774705717
        4.112103355058500        0.001614925249438       -0.002252528701050        0.014381478141872       -0.001614925249914        0.002252528700574       -0.014381478141872
        4.233047571383750        0.001860182840125       -0.002594038419574        0.016124939424632       -0.001860182838828        0.002594038420872       -0.016124939424632
        4.353991787709000        0.002124056249384       -0.002894557443101        0.017701978687915       -0.002124056246842        0.002894557445643       -0.017701978687915
        4.474936004034250        0.002322642867632       -0.003234177524492        0.019112283049240       -0.002322642866043        0.003234177526081       -0.019112283049240
        4.595880220359500        0.002534701499027       -0.003526937555875        0.020343953763570       -0.002534701500926        0.003526937553976       -0.020343953763570
        4.716824436684750        0.002752283293728       -0.003777516111521        0.021398894624388       -0.002752283298183        0.003777516107067       -0.021398894624388
        4.837768653010000        0.002911973660148       -0.004043352173918        0.022269996084078       -0.002911973662952        0.004043352171114       -0.022269996084078
        4.958712869335250        0.003070937669169       -0.004265798812827        0.022964710535456       -0.003070937667114        0.004265798814882       -0.022964710535456
        5.079657085660500        0.003219776285389       -0.004446716615807        0.023471187855614       -0.003219776279860        0.004446716621336       -0.023471187855614
        5.200601301985750        0.003333326074538       -0.004610910365052        0.023800033211238       -0.003333326070664        0.004610910368927       -0.023800033211238
        5.321545518311000        0.003418267159731       -0.004745252521751        0.023943067936712       -0.003418267161332        0.004745252520150       -0.023943067936712
        5.442489734636251        0.003486369660045       -0.004836383147684        0.023906740516486       -0.003486369665692        0.004836383142037       -0.023906740516486
        5.563433950961501        0.003538500662659       -0.004877506227437        0.023684801540455       -0.003538500666986        0.004877506223110       -0.023684801540455
        5.684378167286750        0.003534087531217       -0.004908691270746        0.023286532780977       -0.003534087530380        0.004908691271583       -0.023286532780977
        5.805322383612000        0.003514646562854       -0.004883295273850        0.022708088437186       -0.003514646558140        0.004883295278565       -0.022708088437186
        5.926266599937250        0.003484755626878       -0.004793082462428        0.021949945128979       -0.003484755622853        0.004793082466453       -0.021949945128979
        6.047210816262500        0.003380587816211       -0.004700280505010        0.021018059843233       -0.003380587816330        0.004700280504890       -0.021018059843233
        6.168155032587750        0.003267332662510       -0.004535181069212        0.019910679757260       -0.003267332665752        0.004535181065970       -0.019910679757260
        6.289099248913001        0.003134028545540       -0.004307205581008        0.018633854089781       -0.003134028548272        0.004307205578276       -0.018633854089781
        6.410043465238251        0.002924866527520       -0.004068922715426        0.017189243946033       -0.002924866527756        0.004068922715191       -0.017189243946033
        6.530987681563500        0.002710067437591       -0.003751950567474        0.015590897126103       -0.002710067436181        0.003751950568884       -0.015590897126103
        6.651931897888750        0.002461654992594       -0.003378996291012        0.013835272571612       -0.002461654991347        0.003378996292258       -0.013835272571612
        6.772876114214000        0.002147915364191       -0.002986257828840        0.011942041748334       -0.002147915364047        0.002986257828983       -0.011942041748334
        6.893820330539250        0.001823801049397       -0.002515175587811        0.009911267927166       -0.001823801049512        0.002515175587697       -0.009911267927166
        7.014764546864500        0.001463502487171       -0.001996250807348        0.007761897541905       -0.001463502487038        0.001996250807482       -0.007761897541905
        7.135708763189751        0.001046855690699       -0.001450026471658        0.005502300661103       -0.001046855690547        0.001450026471811       -0.005502300661103
        7.256652979515001        0.000619556490373       -0.000841710251894        0.003163284661817       -0.000619556490733        0.000841710251534       -0.003163284661817
        7.377597195840250        0.000164912567733       -0.000189830560231        0.000754434795480       -0.000164912568257        0.000189830559708       -0.000754434795480
        7.498541412165500       -0.000333612714579        0.000475100812420       -0.001689796324824        0.000333612714434       -0.000475100812564        0.001689796324824
        7.619485628490750       -0.000840377241740        0.001182776375510       -0.004153689878720        0.000840377241774       -0.001182776375476        0.004153689878720
        7.740429844816000       -0.001349819011468        0.001923652313867       -0.006604067959402        0.001349819010968       -0.001923652314367        0.006604067959402
        7.861374061141250       -0.001896313636670        0.002650876150700       -0.009015223388681        0.001896313636040       -0.002650876151330        0.009015223388681
        7.982318277466501       -0.002432123081144        0.003389032867313       -0.011342448471595        0.002432123081906       -0.003389032866552        0.011342448471595
        8.103262493791750       -0.002937310296734        0.004145393619918       -0.013564270631061        0.002937310299507       -0.004145393617145        0.013564270631061
        8.224206710117000       -0.003468537604954        0.004835630579008       -0.015632608431342        0.003468537607306       -0.004835630576657        0.015632608431342
        8.345150926442249       -0.003960470958531        0.005508957027253       -0.017524208508417        0.003960470957160       -0.005508957028624        0.017524208508417
        8.466095142767500       -0.004383453382863        0.006171650727282       -0.019204444500279        0.004383453377628       -0.006171650732516        0.019204444500279
        8.587039359092751       -0.004822758599461        0.006715832390231       -0.020642680633291        0.004822758594754       -0.006715832394938        0.020642680633291
        8.707983575418000       -0.005185574761867        0.007213004135618       -0.021812907723380        0.005185574763095       -0.007213004134391        0.021812907723380
        8.828927791743251       -0.005452669938000        0.007663170207773       -0.022694749163939        0.005452669945083       -0.007663170200691        0.022694749163939
        8.949872008068500       -0.005711311131526        0.007958138138421       -0.023266572614843        0.005711311138042       -0.007958138131905        0.023266572614843
        9.070816224393750       -0.005873253457205        0.008174266660328       -0.023523555854589        0.005873253456768       -0.008174266660764        0.023523555854589
        9.191760440718999       -0.005928288846087        0.008309909446854       -0.023461473415765        0.005928288838936       -0.008309909454004        0.023461473415765
        9.312704657044250       -0.005935979798652        0.008293553704229       -0.023076393130871        0.005935979791654       -0.008293553711227        0.023076393130871
        9.433648873369501       -0.005862264492577        0.008161984717143       -0.022388178405734        0.005862264492053       -0.008161984717667        0.022388178405734
        9.554593089694750       -0.005677682478936        0.007936552489526       -0.021398507279763        0.005677682484519       -0.007936552483944        0.021398507279763
        9.675537306020001       -0.005414279952843        0.007598218839067       -0.020141655056917        0.005414279958534       -0.007598218833376        0.020141655056917
        9.796481522345250       -0.005108857451759        0.007112040456586       -0.018632804522062        0.005108857452777       -0.007112040455567        0.018632804522062
        9.917425738670500       -0.004699705267536        0.006556639018985       -0.016908780817678        0.004699705264427       -0.006556639022093        0.016908780817678
       10.038369954995749       -0.004200972993694        0.005932311556625       -0.015000515564052        0.004200972990385       -0.005932311559934        0.015000515564052
       10.159314171321000       -0.003707270235604        0.005159034464647       -0.012937256768983        0.003707270234880       -0.005159034465370        0.012937256768983
       10.280258387646251       -0.003122393890710        0.004352451765906       -0.010753470178055        0.003122393891715       -0.004352451764901        0.010753470178055
       10.401202603971500       -0.002461777311260        0.003521937389073       -0.008489212706541        0.002461777311801       -0.003521937388533        0.008489212706541
       10.522146820296751       -0.001843564256408        0.002565264698317       -0.006169820746045        0.001843564256458       -0.002565264698266        0.006169820746045
       10.643091036622000       -0.001160424623441        0.001617165132686       -0.003835054317346        0.001160424623825       -0.001617165132303        0.003835054317346
       10.764035252947250       -0.000424083791281        0.000688428648690       -0.001515869730313        0.000424083792129       -0.000688428647842        0.001515869730313
       10.884979469272501        0.000240240367135       -0.000332797545597        0.000770711388814       -0.000240240366431        0.000332797546302       -0.000770711388814
       11.005923685597750        0.000942232824535       -0.001314017365110        0.002995992227452       -0.000942232825076        0.001314017364568       -0.002995992227452
       11.126867901923001        0.001679768483542       -0.002240315615640        0.005140261056245       -0.001679768484912        0.002240315614269       -0.005140261056245
       11.247812118248250        0.002322820402334       -0.003228331661248        0.007189469515585       -0.002322820402945        0.003228331660637       -0.007189469515585
       11.368756334573501        0.002977221803251       -0.004151294070904        0.009120537253146       -0.002977221802952        0.004151294071203       -0.009120537253146
       11.489700550898750        0.003650947222217       -0.004987959389028        0.010921119082638       -0.003650947221981        0.004987959389264       -0.010921119082638
       11.610644767224001        0.004216626073265       -0.005859310621107        0.012587977901328       -0.004216626073280        0.005859310621093       -0.012587977901328
       11.731588983549251        0.004773031190953       -0.006654272204416        0.014110651277850       -0.004773031190826        0.006654272204544       -0.014110651277850
       11.852533199874500        0.005336564288845       -0.007345527478006        0.015480781169476       -0.005336564287829        0.007345527479022       -0.015480781169476
       11.973477416199751        0.005794508640961       -0.008044670566210        0.016702141503000       -0.005794508639539        0.008044670567632       -0.016702141503000
       12.094421632525000        0.006217359375693       -0.008666433406643        0.017761990607761       -0.006217359375862        0.008666433406474       -0.017761990607761
       12.215365848850251        0.006635937370381       -0.009175931049561        0.018660741903293       -0.006635937372813        0.009175931047130       -0.018660741903293
       12.336310065175500        0.006965076516330       -0.009653808879419        0.019398222389672       -0.006965076519090        0.009653808876659       -0.019398222389672
       12.457254281500751        0.007228130025878       -0.010075674040576        0.019978263292622       -0.007228130026038        0.010075674040417       -0.019978263292622
       12.578198497826001        0.007478142636622       -0.010376344445222        0.020391847167627       -0.007478142633499        0.010376344448345       -0.020391847167627
       12.699142714151250        0.007668579423927       -0.010606837427937        0.020649126094895       -0.007668579420250        0.010606837431613       -0.020649126094895
       12.820086930476501        0.007751527591980       -0.010808426607919        0.020747410037619       -0.007751527591294        0.010808426608605       -0.020747410037619
       12.941031146801750        0.007822900105114       -0.010880466456015        0.020686266492398       -0.007822900108152        0.010880466452977       -0.020686266492398
       13.061975363127001        0.007854984088992       -0.010845915179630        0.020465308485762       -0.007854984092789        0.010845915175833       -0.020465308485762
       13.182919579452250        0.007749313994098       -0.010808075698808        0.020094619642472       -0.007749313995178        0.010808075697728       -0.020094619642472
       13.303863795777501        0.007634110399725       -0.010629736358287        0.019569127570683       -0.007634110397472        0.010629736360540       -0.019569127570683
       13.424808012102751        0.007487529116042       -0.010329023271368        0.018889657873604       -0.007487529112939        0.010329023274471       -0.018889657873604
