#     time (fs)  |  E_x (eV/ang)  | E_y (eV/ang) | E_z (eV/ang)
     0.00000000     0.00000000     0.00000000     0.00000000
     0.00241888     0.00859179     0.00859179     0.00000000
     0.00483777     0.01718011     0.01718011     0.00000000
     0.00725665     0.02576146     0.02576146     0.00000000
     0.00967554     0.03433238     0.03433238     0.00000000
     0.01209442     0.04288940     0.04288940     0.00000000
     0.01451331     0.05142904     0.05142904     0.00000000
     0.01693219     0.05994786     0.05994786     0.00000000
     0.01935107     0.06844239     0.06844239     0.00000000
     0.02176996     0.07690920     0.07690920     0.00000000
     0.02418884     0.08534486     0.08534486     0.00000000
     0.02660773     0.09374596     0.09374596     0.00000000
     0.02902661     0.10210908     0.10210908     0.00000000
     0.03144550     0.11043085     0.11043085     0.00000000
     0.03386438     0.11870789     0.11870789     0.00000000
     0.03628326     0.12693684     0.12693684     0.00000000
     0.03870215     0.13511439     0.13511439     0.00000000
     0.04112103     0.14323721     0.14323721     0.00000000
     0.04353992     0.15130201     0.15130201     0.00000000
     0.04595880     0.15930553     0.15930553     0.00000000
     0.04837769     0.16724453     0.16724453     0.00000000
     0.05079657     0.17511579     0.17511579     0.00000000
     0.05321546     0.18291612     0.18291612     0.00000000
     0.05563434     0.19064237     0.19064237     0.00000000
     0.05805322     0.19829140     0.19829140     0.00000000
     0.06047211     0.20586011     0.20586011     0.00000000
     0.06289099     0.21334544     0.21334544     0.00000000
     0.06530988     0.22074437     0.22074437     0.00000000
     0.06772876     0.22805388     0.22805388     0.00000000
     0.07014765     0.23527103     0.23527103     0.00000000
     0.07256653     0.24239288     0.24239288     0.00000000
     0.07498541     0.24941656     0.24941656     0.00000000
     0.07740430     0.25633922     0.25633922     0.00000000
     0.07982318     0.26315805     0.26315805     0.00000000
     0.08224207     0.26987029     0.26987029     0.00000000
     0.08466095     0.27647323     0.27647323     0.00000000
     0.08707984     0.28296418     0.28296418     0.00000000
     0.08949872     0.28934053     0.28934053     0.00000000
     0.09191760     0.29559969     0.29559969     0.00000000
     0.09433649     0.30173912     0.30173912     0.00000000
     0.09675537     0.30775633     0.30775633     0.00000000
     0.09917426     0.31364890     0.31364890     0.00000000
     0.10159314     0.31941442     0.31941442     0.00000000
     0.10401203     0.32505058     0.32505058     0.00000000
     0.10643091     0.33055508     0.33055508     0.00000000
     0.10884979     0.33592569     0.33592569     0.00000000
     0.11126868     0.34116024     0.34116024     0.00000000
     0.11368756     0.34625661     0.34625661     0.00000000
     0.11610645     0.35121274     0.35121274     0.00000000
     0.11852533     0.35602662     0.35602662     0.00000000
     0.12094422     0.36069629     0.36069629     0.00000000
     0.12336310     0.36521987     0.36521987     0.00000000
     0.12578198     0.36959553     0.36959553     0.00000000
     0.12820087     0.37382149     0.37382149     0.00000000
     0.13061975     0.37789603     0.37789603     0.00000000
     0.13303864     0.38181752     0.38181752     0.00000000
     0.13545752     0.38558436     0.38558436     0.00000000
     0.13787641     0.38919503     0.38919503     0.00000000
     0.14029529     0.39264806     0.39264806     0.00000000
     0.14271418     0.39594206     0.39594206     0.00000000
     0.14513306     0.39907569     0.39907569     0.00000000
     0.14755194     0.40204768     0.40204768     0.00000000
     0.14997083     0.40485682     0.40485682     0.00000000
     0.15238971     0.40750199     0.40750199     0.00000000
     0.15480860     0.40998211     0.40998211     0.00000000
     0.15722748     0.41229617     0.41229617     0.00000000
     0.15964637     0.41444324     0.41444324     0.00000000
     0.16206525     0.41642245     0.41642245     0.00000000
     0.16448413     0.41823299     0.41823299     0.00000000
     0.16690302     0.41987413     0.41987413     0.00000000
     0.16932190     0.42134522     0.42134522     0.00000000
     0.17174079     0.42264564     0.42264564     0.00000000
     0.17415967     0.42377488     0.42377488     0.00000000
     0.17657856     0.42473248     0.42473248     0.00000000
     0.17899744     0.42551805     0.42551805     0.00000000
     0.18141632     0.42613127     0.42613127     0.00000000
     0.18383521     0.42657190     0.42657190     0.00000000
     0.18625409     0.42683975     0.42683975     0.00000000
     0.18867298     0.42693471     0.42693471     0.00000000
     0.19109186     0.42685676     0.42685676     0.00000000
     0.19351075     0.42660591     0.42660591     0.00000000
     0.19592963     0.42618228     0.42618228     0.00000000
     0.19834851     0.42558602     0.42558602     0.00000000
     0.20076740     0.42481740     0.42481740     0.00000000
     0.20318628     0.42387671     0.42387671     0.00000000
     0.20560517     0.42276433     0.42276433     0.00000000
     0.20802405     0.42148072     0.42148072     0.00000000
     0.21044294     0.42002640     0.42002640     0.00000000
     0.21286182     0.41840196     0.41840196     0.00000000
     0.21528071     0.41660805     0.41660805     0.00000000
     0.21769959     0.41464540     0.41464540     0.00000000
     0.22011847     0.41251481     0.41251481     0.00000000
     0.22253736     0.41021713     0.41021713     0.00000000
     0.22495624     0.40775331     0.40775331     0.00000000
     0.22737513     0.40512433     0.40512433     0.00000000
     0.22979401     0.40233127     0.40233127     0.00000000
     0.23221290     0.39937524     0.39937524     0.00000000
     0.23463178     0.39625746     0.39625746     0.00000000
     0.23705066     0.39297918     0.39297918     0.00000000
     0.23946955     0.38954174     0.38954174     0.00000000
     0.24188843     0.38594651     0.38594651     0.00000000
     0.24430732     0.38219497     0.38219497     0.00000000
     0.24672620     0.37828862     0.37828862     0.00000000
     0.24914509     0.37422906     0.37422906     0.00000000
     0.25156397     0.37001792     0.37001792     0.00000000
     0.25398285     0.36565692     0.36565692     0.00000000
     0.25640174     0.36114781     0.36114781     0.00000000
     0.25882062     0.35649242     0.35649242     0.00000000
     0.26123951     0.35169265     0.35169265     0.00000000
     0.26365839     0.34675042     0.34675042     0.00000000
     0.26607728     0.34166776     0.34166776     0.00000000
     0.26849616     0.33644671     0.33644671     0.00000000
     0.27091504     0.33108938     0.33108938     0.00000000
     0.27333393     0.32559796     0.32559796     0.00000000
     0.27575281     0.31997465     0.31997465     0.00000000
     0.27817170     0.31422175     0.31422175     0.00000000
     0.28059058     0.30834158     0.30834158     0.00000000
     0.28300947     0.30233652     0.30233652     0.00000000
     0.28542835     0.29620900     0.29620900     0.00000000
     0.28784723     0.28996151     0.28996151     0.00000000
     0.29026612     0.28359658     0.28359658     0.00000000
     0.29268500     0.27711678     0.27711678     0.00000000
     0.29510389     0.27052474     0.27052474     0.00000000
     0.29752277     0.26382313     0.26382313     0.00000000
     0.29994166     0.25701467     0.25701467     0.00000000
     0.30236054     0.25010210     0.25010210     0.00000000
     0.30477943     0.24308824     0.24308824     0.00000000
     0.30719831     0.23597591     0.23597591     0.00000000
     0.30961719     0.22876801     0.22876801     0.00000000
     0.31203608     0.22146745     0.22146745     0.00000000
     0.31445496     0.21407719     0.21407719     0.00000000
     0.31687385     0.20660022     0.20660022     0.00000000
     0.31929273     0.19903958     0.19903958     0.00000000
     0.32171162     0.19139831     0.19139831     0.00000000
     0.32413050     0.18367953     0.18367953     0.00000000
     0.32654938     0.17588634     0.17588634     0.00000000
     0.32896827     0.16802192     0.16802192     0.00000000
     0.33138715     0.16008944     0.16008944     0.00000000
     0.33380604     0.15209213     0.15209213     0.00000000
     0.33622492     0.14403321     0.14403321     0.00000000
     0.33864381     0.13591595     0.13591595     0.00000000
     0.34106269     0.12774364     0.12774364     0.00000000
     0.34348157     0.11951959     0.11951959     0.00000000
     0.34590046     0.11124714     0.11124714     0.00000000
     0.34831934     0.10292962     0.10292962     0.00000000
     0.35073823     0.09457042     0.09457042     0.00000000
     0.35315711     0.08617291     0.08617291     0.00000000
     0.35557600     0.07774050     0.07774050     0.00000000
     0.35799488     0.06927660     0.06927660     0.00000000
     0.36041376     0.06078464     0.06078464     0.00000000
     0.36283265     0.05226806     0.05226806     0.00000000
     0.36525153     0.04373031     0.04373031     0.00000000
     0.36767042     0.03517485     0.03517485     0.00000000
     0.37008930     0.02660514     0.02660514     0.00000000
     0.37250819     0.01802466     0.01802466     0.00000000
     0.37492707     0.00943688     0.00943688     0.00000000
     0.37734595     0.00084527     0.00084527     0.00000000
     0.37976484    -0.00774668    -0.00774668    -0.00000000
     0.38218372    -0.01633549    -0.01633549    -0.00000000
     0.38460261    -0.02491768    -0.02491768    -0.00000000
     0.38702149    -0.03348978    -0.03348978    -0.00000000
     0.38944038    -0.04204832    -0.04204832    -0.00000000
     0.39185926    -0.05058983    -0.05058983    -0.00000000
     0.39427815    -0.05911084    -0.05911084    -0.00000000
     0.39669703    -0.06760792    -0.06760792    -0.00000000
     0.39911591    -0.07607761    -0.07607761    -0.00000000
     0.40153480    -0.08451649    -0.08451649    -0.00000000
     0.40395368    -0.09292113    -0.09292113    -0.00000000
     0.40637257    -0.10128814    -0.10128814    -0.00000000
     0.40879145    -0.10961413    -0.10961413    -0.00000000
     0.41121034    -0.11789571    -0.11789571    -0.00000000
     0.41362922    -0.12612955    -0.12612955    -0.00000000
     0.41604810    -0.13431230    -0.13431230    -0.00000000
     0.41846699    -0.14244065    -0.14244065    -0.00000000
     0.42088587    -0.15051130    -0.15051130    -0.00000000
     0.42330476    -0.15852100    -0.15852100    -0.00000000
     0.42572364    -0.16646649    -0.16646649    -0.00000000
     0.42814253    -0.17434455    -0.17434455    -0.00000000
     0.43056141    -0.18215200    -0.18215200    -0.00000000
     0.43298029    -0.18988567    -0.18988567    -0.00000000
     0.43539918    -0.19754244    -0.19754244    -0.00000000
     0.43781806    -0.20511919    -0.20511919    -0.00000000
     0.44023695    -0.21261286    -0.21261286    -0.00000000
     0.44265583    -0.22002042    -0.22002042    -0.00000000
     0.44507472    -0.22733886    -0.22733886    -0.00000000
     0.44749360    -0.23456522    -0.23456522    -0.00000000
     0.44991248    -0.24169658    -0.24169658    -0.00000000
     0.45233137    -0.24873004    -0.24873004    -0.00000000
     0.45475025    -0.25566276    -0.25566276    -0.00000000
     0.45716914    -0.26249193    -0.26249193    -0.00000000
     0.45958802    -0.26921478    -0.26921478    -0.00000000
     0.46200691    -0.27582859    -0.27582859    -0.00000000
     0.46442579    -0.28233068    -0.28233068    -0.00000000
     0.46684468    -0.28871842    -0.28871842    -0.00000000
     0.46926356    -0.29498921    -0.29498921    -0.00000000
     0.47168244    -0.30114053    -0.30114053    -0.00000000
     0.47410133    -0.30716988    -0.30716988    -0.00000000
     0.47652021    -0.31307481    -0.31307481    -0.00000000
     0.47893910    -0.31885294    -0.31885294    -0.00000000
     0.48135798    -0.32450192    -0.32450192    -0.00000000
     0.48377687    -0.33001947    -0.33001947    -0.00000000
     0.48619575    -0.33540336    -0.33540336    -0.00000000
     0.48861463    -0.34065139    -0.34065139    -0.00000000
     0.49103352    -0.34576145    -0.34576145    -0.00000000
     0.49345240    -0.35073146    -0.35073146    -0.00000000
     0.49587129    -0.35555942    -0.35555942    -0.00000000
     0.49829017    -0.36024336    -0.36024336    -0.00000000
     0.50070906    -0.36478140    -0.36478140    -0.00000000
     0.50312794    -0.36917168    -0.36917168    -0.00000000
     0.50554682    -0.37341245    -0.37341245    -0.00000000
     0.50796571    -0.37750196    -0.37750196    -0.00000000
     0.51038459    -0.38143858    -0.38143858    -0.00000000
     0.51280348    -0.38522070    -0.38522070    -0.00000000
     0.51522236    -0.38884680    -0.38884680    -0.00000000
     0.51764125    -0.39231540    -0.39231540    -0.00000000
     0.52006013    -0.39562510    -0.39562510    -0.00000000
     0.52247901    -0.39877456    -0.39877456    -0.00000000
     0.52489790    -0.40176251    -0.40176251    -0.00000000
     0.52731678    -0.40458773    -0.40458773    -0.00000000
     0.52973567    -0.40724908    -0.40724908    -0.00000000
     0.53215455    -0.40974548    -0.40974548    -0.00000000
     0.53457344    -0.41207592    -0.41207592    -0.00000000
     0.53699232    -0.41423945    -0.41423945    -0.00000000
     0.53941120    -0.41623521    -0.41623521    -0.00000000
     0.54183009    -0.41806238    -0.41806238    -0.00000000
     0.54424897    -0.41972022    -0.41972022    -0.00000000
     0.54666786    -0.42120806    -0.42120806    -0.00000000
     0.54908674    -0.42252530    -0.42252530    -0.00000000
     0.55150563    -0.42367140    -0.42367140    -0.00000000
     0.55392451    -0.42464590    -0.42464590    -0.00000000
     0.55634340    -0.42544841    -0.42544841    -0.00000000
     0.55876228    -0.42607860    -0.42607860    -0.00000000
     0.56118116    -0.42653621    -0.42653621    -0.00000000
     0.56360005    -0.42682106    -0.42682106    -0.00000000
     0.56601893    -0.42693304    -0.42693304    -0.00000000
     0.56843782    -0.42687209    -0.42687209     0.00000000
     0.57085670    -0.42663825    -0.42663825     0.00000000
     0.57327559    -0.42623161    -0.42623161     0.00000000
     0.57569447    -0.42565233    -0.42565233     0.00000000
     0.57811335    -0.42490065    -0.42490065     0.00000000
     0.58053224    -0.42397687    -0.42397687     0.00000000
     0.58295112    -0.42288136    -0.42288136     0.00000000
     0.58537001    -0.42161458    -0.42161458     0.00000000
     0.58778889    -0.42017703    -0.42017703     0.00000000
     0.59020778    -0.41856929    -0.41856929     0.00000000
     0.59262666    -0.41679202    -0.41679202     0.00000000
     0.59504554    -0.41484594    -0.41484594     0.00000000
     0.59746443    -0.41273183    -0.41273183     0.00000000
     0.59988331    -0.41045055    -0.41045055     0.00000000
     0.60230220    -0.40800303    -0.40800303     0.00000000
     0.60472108    -0.40539025    -0.40539025     0.00000000
     0.60713997    -0.40261328    -0.40261328     0.00000000
     0.60955885    -0.39967324    -0.39967324     0.00000000
     0.61197773    -0.39657131    -0.39657131     0.00000000
     0.61439662    -0.39330876    -0.39330876     0.00000000
     0.61681550    -0.38988691    -0.38988691     0.00000000
     0.61923439    -0.38630715    -0.38630715     0.00000000
     0.62165327    -0.38257092    -0.38257092     0.00000000
     0.62407216    -0.37867973    -0.37867973     0.00000000
     0.62649104    -0.37463517    -0.37463517     0.00000000
     0.62890992    -0.37043887    -0.37043887     0.00000000
     0.63132881    -0.36609253    -0.36609253     0.00000000
     0.63374769    -0.36159791    -0.36159791     0.00000000
     0.63616658    -0.35695683    -0.35695683     0.00000000
     0.63858546    -0.35217117    -0.35217117     0.00000000
     0.64100435    -0.34724288    -0.34724288     0.00000000
     0.64342323    -0.34217394    -0.34217394     0.00000000
     0.64584212    -0.33696640    -0.33696640     0.00000000
     0.64826100    -0.33162239    -0.33162239     0.00000000
     0.65067988    -0.32614406    -0.32614406     0.00000000
     0.65309877    -0.32053363    -0.32053363     0.00000000
     0.65551765    -0.31479337    -0.31479337     0.00000000
     0.65793654    -0.30892562    -0.30892562     0.00000000
     0.66035542    -0.30293273    -0.30293273     0.00000000
     0.66277431    -0.29681716    -0.29681716     0.00000000
     0.66519319    -0.29058136    -0.29058136     0.00000000
     0.66761207    -0.28422786    -0.28422786     0.00000000
     0.67003096    -0.27775925    -0.27775925     0.00000000
     0.67244984    -0.27117814    -0.27117814     0.00000000
     0.67486873    -0.26448718    -0.26448718     0.00000000
     0.67728761    -0.25768911    -0.25768911     0.00000000
     0.67970650    -0.25078666    -0.25078666     0.00000000
     0.68212538    -0.24378263    -0.24378263     0.00000000
     0.68454426    -0.23667987    -0.23667987     0.00000000
     0.68696315    -0.22948124    -0.22948124     0.00000000
     0.68938203    -0.22218967    -0.22218967     0.00000000
     0.69180092    -0.21480810    -0.21480810     0.00000000
     0.69421980    -0.20733953    -0.20733953     0.00000000
     0.69663869    -0.19978698    -0.19978698     0.00000000
     0.69905757    -0.19215351    -0.19215351     0.00000000
     0.70147645    -0.18444221    -0.18444221     0.00000000
     0.70389534    -0.17665621    -0.17665621     0.00000000
     0.70631422    -0.16879865    -0.16879865     0.00000000
     0.70873311    -0.16087273    -0.16087273     0.00000000
     0.71115199    -0.15288165    -0.15288165     0.00000000
     0.71357088    -0.14482864    -0.14482864     0.00000000
     0.71598976    -0.13671698    -0.13671698     0.00000000
     0.71840864    -0.12854994    -0.12854994     0.00000000
     0.72082753    -0.12033083    -0.12033083     0.00000000
     0.72324641    -0.11206299    -0.11206299     0.00000000
     0.72566530    -0.10374976    -0.10374976     0.00000000
     0.72808418    -0.09539451    -0.09539451     0.00000000
     0.73050307    -0.08700061    -0.08700061     0.00000000
     0.73292195    -0.07857148    -0.07857148     0.00000000
     0.73534084    -0.07011053    -0.07011053     0.00000000
     0.73775972    -0.06162118    -0.06162118     0.00000000
     0.74017860    -0.05310687    -0.05310687     0.00000000
     0.74259749    -0.04457105    -0.04457105     0.00000000
     0.74501637    -0.03601718    -0.03601718     0.00000000
     0.74743526    -0.02744872    -0.02744872     0.00000000
     0.74985414    -0.01886914    -0.01886914     0.00000000
     0.75227303    -0.01028192    -0.01028192     0.00000000
     0.75469191    -0.00169054    -0.00169054     0.00000000
     0.75711079     0.00690153     0.00690153     0.00000000
     0.75952968     0.01549080     0.01549080     0.00000000
     0.76194856     0.02407380     0.02407380     0.00000000
     0.76436745     0.03264705     0.03264705     0.00000000
     0.76678633     0.04120708     0.04120708     0.00000000
     0.76920522     0.04975041     0.04975041     0.00000000
     0.77162410     0.05827360     0.05827360     0.00000000
     0.77404298     0.06677318     0.06677318     0.00000000
     0.77646187     0.07524572     0.07524572     0.00000000
     0.77888075     0.08368778     0.08368778     0.00000000
     0.78129964     0.09209594     0.09209594     0.00000000
     0.78371852     0.10046680     0.10046680     0.00000000
     0.78613741     0.10879697     0.10879697     0.00000000
