#  GS molecular orbital populations, spin channel : 1
#          time (fs)            |   population (orb 1)       |    population (orb 2)      |           ...              |    population (orb N)      |
          0.118525331998745            1.999990180028597            0.000000197953823  
          0.239469548323995            1.999991235535084            0.000000007497795  
          0.360413764649245            1.999991991134645            0.000000209640715  
          0.481357980974495            1.999993222999409            0.000000018261976  
          0.602302197299745            1.999994090879762            0.000000262781368  
          0.723246413624995            1.999995513512804            0.000000012693848  
          0.844190629950245            1.999996633490807            0.000000113005600  
          0.965134846275495            1.999997939008039            0.000000062530452  
          1.086079062600745            1.999998887938491            0.000000390068246  
          1.207023278925995            2.000000560947867            0.000000001209222  
          1.327967495251245            2.000001801091637            0.000000039137687  
          1.448911711576495            2.000002958252725            0.000000140353347  
          1.569855927901745            2.000003854489926            0.000000469421711  
          1.690800144226995            2.000005476423047            0.000000026598738  
          1.811744360552245            2.000006609352825            0.000000013997611  
          1.932688576877495            2.000007400608055            0.000000272611866  
          2.053632793202745            2.000008229192595            0.000000412478038  
          2.174577009527995            2.000009372886201            0.000000145730043  
          2.295521225853245            2.000010215906026            0.000000079066210  
          2.416465442178495            2.000010599126163            0.000000363850402  
          2.537409658503745            2.000011215658837            0.000000300395809  
          2.658353874828995            2.000011653351072            0.000000295365810  
          2.779298091154245            2.000011904745559            0.000000352217144  
          2.900242307479495            2.000012184154562            0.000000253699054  
          3.021186523804745            2.000012214602499            0.000000275581940  
          3.142130740129995            2.000012008598865            0.000000405111208  
          3.263074956455245            2.000011406591174            0.000000803362050  
          3.384019172780495            2.000011829086183            0.000000052030042  
          3.504963389105745            2.000011164306217            0.000000266809858  
          3.625907605430995            2.000010285114777            0.000000579912392  
          3.746851821756245            2.000009097796851            0.000001091263175  
          3.867796038081495            2.000009244557313            0.000000165716594  
          3.988740254406745            2.000008403767427            0.000000132737570  
          4.109684470731995            2.000006695978903            0.000000881315784  
          4.230628687057245            2.000005584710567            0.000000957536112  
          4.351572903382495            2.000004753185040            0.000000688797708  
          4.472517119707745            2.000004134932841            0.000000152276360  
          4.593461336032996            2.000002088450984            0.000001001374397  
          4.714405552358246            2.000001183231132            0.000000678625591  
          4.835349768683495            1.999999531025750            0.000001084295520  
          4.956293985008745            1.999998543169438            0.000000819677138  
          5.077238201333995            1.999997455567512            0.000000660815002  
          5.198182417659245            1.999996222163364            0.000000666723674  
          5.319126633984495            1.999994724113033            0.000000968047298  
          5.440070850309746            1.999992660142604            0.000001878539670  
          5.561015066634996            1.999993127112418            0.000000312277541  
          5.681959282960245            1.999991649695353            0.000000755803487  
          5.802903499285495            1.999990632722995            0.000000815127071  
          5.923847715610745            1.999988287222942            0.000002288827088  
          6.044791931935995            1.999989080790392            0.000000718516677  
          6.165736148261245            1.999988563717176            0.000000561201741  
          6.286680364586495            1.999987398757868            0.000001162366731  
          6.407624580911745            1.999986454338576            0.000001659066472  
          6.528568797236995            1.999986087937847            0.000001699222031  
          6.649513013562244            1.999987142834587            0.000000442715511  
          6.770457229887494            1.999985964238672            0.000001547159072  
          6.891401446212745            1.999986613945674            0.000000952309279  
          7.012345662537995            1.999985600912688            0.000002148599571  
          7.133289878863245            1.999986893841438            0.000001166527539  
          7.254234095188495            1.999987283258073            0.000001211663782  
          7.375178311513745            1.999987951130520            0.000001099186352  
          7.496122527838994            1.999988068351434            0.000001651848432  
          7.617066744164244            1.999988014973038            0.000002483889337  
          7.738010960489495            1.999990814023512            0.000000563298616  
          7.858955176814745            1.999990750038740            0.000001597090093  
          7.979899393139995            1.999992153014851            0.000001245399421  
          8.100843609465246            1.999991449426120            0.000003070534518  
          8.221787825790495            1.999994884865011            0.000000815319845  
          8.342732042115745            1.999995551296981            0.000001374261758  
          8.463676258440994            1.999996276964728            0.000001907664818  
          8.584620474766245            1.999997088971649            0.000002373715424  
          8.705564691091494            1.999998649119190            0.000002098022131  
          8.826508907416745            2.000001354439372            0.000000668280888  
          8.947453123741996            2.000000375633959            0.000002901609227  
          9.068397340067245            2.000002818284188            0.000001678402368  
          9.189341556392495            2.000002670209955            0.000002998063844  
          9.310285772717744            2.000005843449399            0.000000935960106  
          9.431229989042995            2.000005151551914            0.000002666409267  
          9.552174205368244            2.000006361131080            0.000002413286803  
          9.673118421693495            2.000007040549786            0.000002596783302  
          9.794062638018746            2.000007798067418            0.000002601380780  
          9.915006854343995            2.000009710008090            0.000001340987941  
         10.035951070669245            2.000007772745449            0.000003814992404  
         10.156895286994494            2.000009860567868            0.000002142359355  
         10.277839503319745            2.000008312649939            0.000003981092722  
         10.398783719644994            2.000011368127047            0.000001088496555  
         10.519727935970245            2.000008781775530            0.000003708683948  
         10.640672152295496            2.000009055656047            0.000003340897850  
         10.761616368620745            2.000008566274237            0.000003608453121  
         10.882560584945995            2.000008807199830            0.000003022214587  
         11.003504801271244            2.000009364970615            0.000001997116515  
         11.124449017596495            2.000005538647987            0.000005242198779  
         11.245393233921744            2.000007265424562            0.000002824391855  
         11.366337450246995            2.000004212096877            0.000005085598954  
         11.487281666572246            2.000006877286579            0.000001534273946  
         11.608225882897495            2.000002408985872            0.000005031816106  
         11.729170099222745            2.000002461895128            0.000003934774342  
         11.850114315547994            2.000000410248111            0.000004877513657  
         11.971058531873245            2.000000165722703            0.000003961639907  
         12.092002748198494            2.000000244518813            0.000002679701140  
         12.212946964523745            1.999995634596221            0.000006058944949  
         12.333891180848996            1.999996872110082            0.000003573294913  
         12.454835397174245            1.999992621748994            0.000006571644484  
         12.575779613499495            1.999995991467957            0.000001957677099  
         12.696723829824744            1.999990823990217            0.000005900631890  
         12.817668046149995            1.999991395197067            0.000004138953042  
         12.938612262475244            1.999988288892327            0.000006097964095  
         13.059556478800495            1.999988454800853            0.000004842281038  
         13.180500695125746            1.999989012883278            0.000003259486991  
         13.301444911450995            1.999985184916121            0.000006141628412  
         13.422389127776245            1.999986465527658            0.000004001732178  
         13.543333344101494            1.999981813866271            0.000007890464212  
         13.664277560426745            1.999986907052564            0.000002138346582  
         13.785221776751994            1.999982394967751            0.000006101288539  
         13.906165993077245            1.999983843345483            0.000004222645241  
         14.027110209402496            1.999980557500041            0.000007198343248  
         14.148054425727745            1.999982860542065            0.000004712294000  
         14.268998642052996            1.999984062462042            0.000003452744514  
         14.389942858378244            1.999980914189551            0.000006673995283  
         14.510887074703495            1.999983388250961            0.000004400680369  
         14.631831291028744            1.999980464719034            0.000007652132955  
         14.752775507353995            1.999986403051180            0.000002165493047  
         14.873719723679246            1.999981882346976            0.000007256507578  
         14.994663940004495            1.999985757134143            0.000004067932509  
         15.115608156329746            1.999983568270008            0.000007048266551  
         15.236552372654995            1.999986699082131            0.000004810085720  
         15.357496588980245            1.999987997053752            0.000004492217691  
         15.478440805305494            1.999986919029102            0.000006632412681  
         15.599385021630745            1.999990217973805            0.000004462891659  
         15.720329237955996            1.999987576361459            0.000008291856723  
         15.841273454281245            1.999994904790324            0.000002194018798  
         15.962217670606496            1.999990563097530            0.000007797160382  
         16.083161886931745            1.999994887405772            0.000004753176699  
         16.204106103256994            1.999992790754477            0.000008132752728  
         16.325050319582246            1.999998273913392            0.000003924239309  
         16.445994535907495            1.999998169119594            0.000005277572821  
         16.566938752232744            1.999995987947223            0.000008673542952  
         16.687882968557997            2.000000609532624            0.000005214911314  
         16.808827184883246            1.999999426935794            0.000007500265983  
         16.929771401208495            2.000005146295220            0.000002807919725  
         17.050715617533744            1.999997753913549            0.000011144470054  
         17.171659833858996            2.000004860961121            0.000004887721247  
         17.292604050184245            2.000002479549083            0.000008015739485  
         17.413548266509494            2.000006116276583            0.000005016481946  
         17.534492482834747            2.000003240688740            0.000008410861691  
         17.655436699159996            2.000003105713227            0.000008946285084  
         17.776380915485245            2.000006699460251            0.000005624493076  
         17.897325131810494            2.000002431354976            0.000010039713067  
         18.018269348135746            2.000008262319967            0.000004224243562  
         18.139213564460995            2.000000327974364            0.000012047780953  
         18.260157780786244            2.000005959417882            0.000006177973445  
         18.381101997111497            2.000000315999501            0.000011459041571  
         18.502046213436746            2.000006255263368            0.000005038350958  
         18.622990429761995            2.000001353752646            0.000009341488128  
         18.743934646087244            1.999998016637167            0.000011975782431  
         18.864878862412496            2.000001025999554            0.000008159870428  
         18.985823078737745            1.999998201871112            0.000010087899670  
         19.106767295062994            2.000002365849138            0.000004941476227  
         19.227711511388247            1.999989894204672            0.000016360360924  
         19.348655727713496            1.999998370125156            0.000006768947709  
         19.469599944038745            1.999991882914198            0.000012088580611  
         19.590544160363994            1.999996020558220            0.000006745196329  
         19.711488376689246            1.999988647637590            0.000012882569268  
         19.832432593014495            1.999989275225840            0.000011008077390  
         19.953376809339744            1.999990044661537            0.000008985263240  
         20.074321025664997            1.999984059929288            0.000013729521008  
         20.195265241990246            1.999990397356477            0.000006170837042  
         20.316209458315495            1.999980690863991            0.000014691722893  
         20.437153674640744            1.999986481316321            0.000007762078822  
         20.558097890965996            1.999976669233811            0.000016491300152  
         20.679042107291245            1.999986349179427            0.000005798788119  
         20.799986323616494            1.999979836359337            0.000011373848934  
         20.920930539941747            1.999977612802193            0.000012752814275  
         21.041874756266996            1.999977874470181            0.000011740029710  
         21.162818972592245            1.999977399551706            0.000011571369124  
         21.283763188917494            1.999982835504596            0.000005600707138  
         21.404707405242746            1.999970529041574            0.000017491964076  
         21.525651621567995            1.999980312927687            0.000007415950334  
         21.646595837893244            1.999973402182963            0.000014157790938  
         21.767540054218497            1.999981003159627            0.000006518561198  
         21.888484270543746            1.999973199785015            0.000014408734732  
         22.009428486868995            1.999977913384382            0.000009915024107  
         22.130372703194244            1.999978033308417            0.000010136862617  
         22.251316919519496            1.999975090204519            0.000013548982991  
         22.372261135844745            1.999982240455638            0.000006983341479  
         22.493205352169994            1.999975646724986            0.000014276676302  
         22.614149568495247            1.999983519961051            0.000007209201857  
         22.735093784820496            1.999974675196379            0.000016956891368  
         22.856038001145745            1.999987745677511            0.000004879632602  
         22.976982217470994            1.999981110281561            0.000012582982063  
         23.097926433796246            1.999982976738135            0.000011856703453  
         23.218870650121495            1.999983671669288            0.000012352872958  
         23.339814866446744            1.999987472821784            0.000009788924484  
         23.460759082771997            1.999991786443127            0.000006737278299  
         23.581703299097246            1.999980906337583            0.000018899644529  
         23.702647515422495            1.999993928236478            0.000007160242778  
         23.823591731747744            1.999988921910555            0.000013437549671  
         23.944535948072996            1.999997565465779            0.000006039739057  
         24.065480164398245            1.999986220941610            0.000018590723705  
         24.186424380723494            1.999996276789665            0.000009693530982  
         24.307368597048747            1.999996573219151            0.000010487374006  
         24.428312813373996            1.999994939203376            0.000013141277048  
         24.549257029699245            1.999998031986713            0.000010978113783  
         24.670201246024494            1.999993150417537            0.000016699386954  
         24.791145462349750            2.000003243781998            0.000007337390013  
         24.912089678674999            1.999992143450578            0.000019061234001  
         25.033033895000248            2.000005118967003            0.000006590094228  
         25.153978111325497            1.999994328871834            0.000017762462505  
         25.274922327650749            1.999999365610582            0.000012984640142  
         25.395866543975998            1.999996613550068            0.000015864526104  
         25.516810760301247            2.000001174397573            0.000011306728514  
         25.637754976626500            2.000000995739145            0.000011354175617  
         25.758699192951749            1.999988216164393            0.000023883060512  
         25.879643409276998            2.000002270572566            0.000009449566014  
         26.000587625602247            1.999993967713578            0.000017257081594  
         26.121531841927499            2.000002047013491            0.000008565721791  
         26.242476058252748            1.999983390384428            0.000026505036004  
         26.363420274577997            1.999997534084670            0.000011546386568  
         26.484364490903250            1.999992948455658            0.000015221210318  
         26.605308707228499            1.999990809567992            0.000016372263518  
         26.726252923553748            1.999988986145057            0.000017131198113  
         26.847197139878997            1.999984312722666            0.000020685270382  
         26.968141356204249            1.999993300036001            0.000010523280453  
         27.089085572529498            1.999977399644523            0.000025214885169  
