#           time (fs)    |     mu_x (e.angstrom)   |     mu_y (e.angstrom)   |     mu_z (e.angstrom)   |
        0.000000000000000       -0.000000000000000       -0.000000000000000        0.000000000000000
        0.002418884326505        0.000000000052777        0.000000001456040        0.000018166964645
        0.004837768653010        0.000000000210356        0.000000005823420        0.000036327254524
        0.007256652979515        0.000000000471261        0.000000013031222        0.000054193512529
        0.009675537306020        0.000000000834495        0.000000023101886        0.000072053984933
        0.012094421632525        0.000000001294173        0.000000035802421        0.000089332518277
        0.014513305959030        0.000000001852067        0.000000051272019        0.000106607026773
        0.016932190285535        0.000000002494737        0.000000069028440        0.000123021874712
        0.019351074612040        0.000000003229952        0.000000089416961        0.000139435290569
        0.021769958938545        0.000000004033847        0.000000111626637        0.000154725983089
        0.024188843265050        0.000000004923158        0.000000136291111        0.000170018608059
        0.026607727591555        0.000000005861100        0.000000162201686        0.000183944335433
        0.029026611918060        0.000000006875996        0.000000190352858        0.000197876051716
        0.031445496244565        0.000000007916113        0.000000219081988        0.000210219502939
        0.033864380571070        0.000000009023533        0.000000249804596        0.000222573593460
        0.036283264897575        0.000000010130086        0.000000280362897        0.000233144401752
        0.038702149224080        0.000000011293263        0.000000312639093        0.000243730979279
        0.041121033550585        0.000000012427574        0.000000343955807        0.000252368719264
        0.043539917877090        0.000000013606977        0.000000376691207        0.000261027709291
        0.045958802203595        0.000000014728430        0.000000407641989        0.000267604397778
        0.048377686530100        0.000000015882777        0.000000439693768        0.000274208027375
        0.050796570856605        0.000000016949883        0.000000469129989        0.000278630087757
        0.053215455183110        0.000000018037208        0.000000499336386        0.000283084840645
        0.055634339509615        0.000000019008687        0.000000526115277        0.000285294499702
        0.058053223836120        0.000000019987434        0.000000553325862        0.000287542506515
        0.060472108162625        0.000000020823313        0.000000576340831        0.000287518601615
        0.062890992489130        0.000000021653431        0.000000599446842        0.000287538443526
        0.065309876815635        0.000000022316121        0.000000617657267        0.000285296627875
        0.067728761142140        0.000000022960137        0.000000635621335        0.000283103541300
        0.070147645468645        0.000000023415463        0.000000648081155        0.000278695884669
        0.072566529795150        0.000000023839512        0.000000659965733        0.000274341364538
        0.074985414121655        0.000000024057681        0.000000665850177        0.000267855356764
        0.077404298448160        0.000000024232459        0.000000670844027        0.000261426165655
        0.079823182774665        0.000000024188936        0.000000669473849        0.000252983139930
        0.082242067101170        0.000000024090564        0.000000666915950        0.000244599740021
        0.084660951427675        0.000000023766836        0.000000657778606        0.000234352742462
        0.087079835754180        0.000000023377614        0.000000647178932        0.000224167176684
        0.089498720080685        0.000000022761822        0.000000629946167        0.000212298317702
        0.091917604407190        0.000000022070845        0.000000611002809        0.000200491575432
        0.094336488733695        0.000000021158279        0.000000585544218        0.000187208906841
        0.096755373060200        0.000000020161907        0.000000558156426        0.000173987817911
        0.099174257386705        0.000000018955335        0.000000524548627        0.000159521787499
        0.101593141713210        0.000000017657506        0.000000488825408        0.000145115495942
        0.104012026039715        0.000000016167337        0.000000447356547        0.000129715038096
        0.106430910366220        0.000000014579705        0.000000403620572        0.000114371113958
        0.108849794692725        0.000000012823976        0.000000354789985        0.000098299440873
        0.111268679019230        0.000000010965882        0.000000303576620        0.000082279694279
        0.113687563345735        0.000000008970070        0.000000248089586        0.000065809857198
        0.116106447672240        0.000000006868321        0.000000190141000        0.000049385923762
        0.118525331998745        0.000000004664974        0.000000128898599        0.000032796217431
        0.120944216325250        0.000000002353462        0.000000065152979        0.000016244987793
        0.123363100651755       -0.000000000018336       -0.000000000762801       -0.000000185726090
        0.125781984978260       -0.000000002499204       -0.000000069186783       -0.000016586757213
        0.128200869304765       -0.000000004994535       -0.000000138532462       -0.000032583730471
        0.130619753631270       -0.000000007598553       -0.000000210355677       -0.000048561119070
        0.133038637957775       -0.000000010167519       -0.000000281749877       -0.000063858324254
        0.135457522284280       -0.000000012843560       -0.000000355556924       -0.000079147258886
        0.137876406610785       -0.000000015432268       -0.000000427507725       -0.000093491847235
        0.140295290937290       -0.000000018125290       -0.000000501774828       -0.000107840582382
        0.142714175263795       -0.000000020676962       -0.000000572710360       -0.000120997118958
        0.145133059590300       -0.000000023329130       -0.000000645836458       -0.000134171186765
        0.147551943916805       -0.000000025785299       -0.000000714138142       -0.000145925592830
        0.149970828243310       -0.000000028337205       -0.000000784478569       -0.000157711723661
        0.152389712569815       -0.000000030638989       -0.000000848516349       -0.000167874861130
        0.154808596896320       -0.000000033030934       -0.000000914418438       -0.000178084548187
        0.157227481222825       -0.000000035120357       -0.000000972587296       -0.000186495386834
        0.159646365549330       -0.000000037293684       -0.000001032427195       -0.000194968035846
        0.162065249875835       -0.000000039115010       -0.000001083184189       -0.000201496350750
        0.164484134202340       -0.000000041013450       -0.000001135404131       -0.000208101962573
        0.166903018528845       -0.000000042514517       -0.000001177305196       -0.000212650516972
        0.169321902855350       -0.000000044085520       -0.000001220450445       -0.000217291858543
        0.171740787181855       -0.000000045219029       -0.000001252186151       -0.000219798035690
        0.174159671508360       -0.000000046415064       -0.000001284940838       -0.000222412263164
        0.176578555834865       -0.000000047139804       -0.000001305370347       -0.000222849119784
        0.178997440161370       -0.000000047919580       -0.000001326591411       -0.000223408826661
        0.181416324487875       -0.000000048201566       -0.000001334773861       -0.000221785550100
        0.183835208814380       -0.000000048531166       -0.000001343522347       -0.000220299222564
        0.186254093140885       -0.000000048344650       -0.000001338744947       -0.000216660983486
        0.188672977467390       -0.000000048198539       -0.000001334313939       -0.000213172854924
        0.191091861793895       -0.000000047526883       -0.000001316116105       -0.000207600057339
        0.193510746120400       -0.000000046888771       -0.000001298054627       -0.000202189363829
        0.195929630446905       -0.000000045725156       -0.000001266247564       -0.000194796304148
        0.198348514773410       -0.000000044588694       -0.000001234379854       -0.000187575952619
        0.200767399099915       -0.000000042936641       -0.000001189061051       -0.000178508909135
        0.203186283426420       -0.000000041305931       -0.000001143500698       -0.000169623579491
        0.205605167752925       -0.000000039179628       -0.000001085062914       -0.000159058363074
        0.208024052079430       -0.000000037069535       -0.000001026221428       -0.000148682074972
        0.210442936405935       -0.000000034493948       -0.000000955355835       -0.000136821080678
        0.212861820732440       -0.000000031930196       -0.000000883945328       -0.000125154264424
        0.215280705058945       -0.000000028940966       -0.000000801638597       -0.000112223071947
        0.217699589385450       -0.000000025960013       -0.000000718668375       -0.000099489191233
        0.220118473711955       -0.000000022603127       -0.000000626193593       -0.000085732769606
        0.222537358038460       -0.000000019251820       -0.000000532960549       -0.000072174551201
        0.224956242364965       -0.000000015583061       -0.000000431861996       -0.000057853129758
        0.227375126691470       -0.000000011918065       -0.000000329934849       -0.000043728461816
        0.229794011017975       -0.000000008002245       -0.000000222006760       -0.000029113135004
        0.232212895344480       -0.000000004089258       -0.000000113204274       -0.000014690701208
        0.234631779670985        0.000000000000757       -0.000000000463861       -0.000000058839282
        0.237050663997490        0.000000004087998        0.000000113172672        0.000014386439534
        0.239469548323995        0.000000008272456        0.000000228517569        0.000028755898531
        0.241888432650500        0.000000012453364        0.000000344757202        0.000042947540332
        0.244307316977005        0.000000016646971        0.000000460345336        0.000056778839855
        0.246726201303510        0.000000020835472        0.000000576805190        0.000070443517935
        0.249145085630015        0.000000024948891        0.000000690163402        0.000083468795226
        0.251563969956520        0.000000029054936        0.000000804350621        0.000096341017511
        0.253982854283025        0.000000032996417        0.000000912938909        0.000108304901030
        0.256401738609530        0.000000036927631        0.000001022296161        0.000120131574800
        0.258820622936035        0.000000040604737        0.000001123555545        0.000130795590743
        0.261239507262540        0.000000044268155        0.000001225509254        0.000141340397155
        0.263658391589045        0.000000047589565        0.000001316911585        0.000150487111907
        0.266077275915550        0.000000050893448        0.000001408922055        0.000159534617679
        0.268496160242055        0.000000053770788        0.000001488020848        0.000166971447243
        0.270915044568560        0.000000056626464        0.000001567633352        0.000174330884985
        0.273333928895065        0.000000058976151        0.000001632114697        0.000179893507761
        0.275752813221570        0.000000061299867        0.000001697010575        0.000185402161739
        0.278171697548075        0.000000063044913        0.000001744743159        0.000188957477325
        0.280590581874580        0.000000064759637        0.000001792789945        0.000192483617780
        0.283009466201085        0.000000065831389        0.000001821873189        0.000193932201807
        0.285428350527590        0.000000066868559        0.000001851172794        0.000195377518163
        0.287847234854095        0.000000067208333        0.000001859982150        0.000194655531261
        0.290266119180600        0.000000067509487        0.000001868916124        0.000193957022711
        0.292685003507105        0.000000067070073        0.000001856144590        0.000191037540565
        0.295103887833610        0.000000066588345        0.000001843415530        0.000188168831219
        0.297522772160115        0.000000065335332        0.000001808110502        0.000183062572006
        0.299941656486620        0.000000064036779        0.000001772778727        0.000178034627173
        0.302360540813125        0.000000061949690        0.000001714373373        0.000170790062474
        0.304779425139630        0.000000059814414        0.000001655888041        0.000163651292337
        0.307198309466135        0.000000056887620        0.000001574226449        0.000154354137633
        0.309617193792640        0.000000053910666        0.000001492450406        0.000145189884547
        0.312036078119145        0.000000050154038        0.000001387805892        0.000133961975495
        0.314454962445650        0.000000046346044        0.000001283033598        0.000122893391187
        0.316873846772155        0.000000041785354        0.000001156119634        0.000109890961912
        0.319292731098660        0.000000037172926        0.000001029087677        0.000097073290803
        0.321711615425165        0.000000031849961        0.000000881061059        0.000082484680187
        0.324130499751670        0.000000026475774        0.000000732950850        0.000068104974788
        0.326549384078175        0.000000020448158        0.000000565406833        0.000052147796132
        0.328968268404680        0.000000014370761        0.000000397839241        0.000036422099745
        0.331387152731185        0.000000007711487        0.000000212798527        0.000019339917954
        0.333806037057690        0.000000001004816        0.000000027820340        0.000002509958690
        0.336224921384195       -0.000000006198520       -0.000000172292051       -0.000015431472741
        0.338643805710700       -0.000000013445929       -0.000000372229805       -0.000033102024599
        0.341062690037205       -0.000000021092173       -0.000000584613600       -0.000051618907256
        0.343481574363710       -0.000000028778252       -0.000000796685279       -0.000069848559280
        0.345900458690215       -0.000000036754023       -0.000001018201640       -0.000088643508315
        0.348319343016720       -0.000000044764515       -0.000001239244220       -0.000107137377822
        0.350738227343225       -0.000000052945783       -0.000001466459566       -0.000125904124133
        0.353157111669730       -0.000000061155848       -0.000001693017009       -0.000144358611203
        0.355575995996235       -0.000000069409758       -0.000001922253369       -0.000162786872092
        0.357994880322740       -0.000000077685809       -0.000002150627490       -0.000180894498905
        0.360413764649245       -0.000000085872702       -0.000002378018634       -0.000198674939099
        0.362832648975750       -0.000000094074451       -0.000002604325727       -0.000216129277907
        0.365251533302255       -0.000000102050075       -0.000002825878220       -0.000232958481196
        0.367670417628760       -0.000000110032753       -0.000003046110556       -0.000249459091648
        0.370089301955265       -0.000000117650609       -0.000003257768756       -0.000265044463030
        0.372508186281770       -0.000000125267330       -0.000003467859982       -0.000280301759236
        0.374927070608275       -0.000000132381123       -0.000003665573925       -0.000294366278444
        0.377345954934780       -0.000000139485348       -0.000003861467291       -0.000308106247128
        0.379764839261285       -0.000000145951505       -0.000004041262316       -0.000320392996614
        0.382183723587790       -0.000000152399565       -0.000004218980586       -0.000332361689942
        0.384602607914295       -0.000000158079768       -0.000004377027524       -0.000342638083920
        0.387021492240800       -0.000000163733412       -0.000004532743376       -0.000352605814072
        0.389440376567305       -0.000000168497108       -0.000004665428062       -0.000360667459852
        0.391859260893810       -0.000000173226017       -0.000004795533745       -0.000368432627083
        0.394278145220315       -0.000000176952861       -0.000004899524625       -0.000374106755776
        0.396697029546820       -0.000000180637090       -0.000005000699638       -0.000379499247470
        0.399115913873325       -0.000000183219278       -0.000005073012240       -0.000382647657940
        0.401534798199830       -0.000000185751587       -0.000005142287792       -0.000385531762977
        0.403953682526335       -0.000000187096022       -0.000005180344861       -0.000386053230655
        0.406372566852840       -0.000000188384045       -0.000005215163924       -0.000386330021115
        0.408791451179345       -0.000000188414315       -0.000005216850082       -0.000384162131839
        0.411210335505850       -0.000000188382529       -0.000005215121891       -0.000381771272562
        0.413629219832355       -0.000000187040643       -0.000005178831747       -0.000376891650793
        0.416048104158860       -0.000000185632097       -0.000005138979677       -0.000371812606442
        0.418466988485365       -0.000000182879953       -0.000005063658419       -0.000364239516887
        0.420885872811870       -0.000000180057723       -0.000004984660275       -0.000356492135842
        0.423304757138375       -0.000000175878270       -0.000004869835880       -0.000346284447569
        0.425723641464880       -0.000000171626609       -0.000004751255737       -0.000335928911935
        0.428142525791385       -0.000000166024684       -0.000004597062075       -0.000323185424300
        0.430561410117890       -0.000000160349843       -0.000004439072952       -0.000310321565492
        0.432980294444395       -0.000000153352652       -0.000004246263193       -0.000295179705433
        0.435399178770900       -0.000000146283343       -0.000004049659981       -0.000279945695027
        0.437818063097405       -0.000000137940582       -0.000003819609900       -0.000262579605398
        0.440236947423910       -0.000000129528082       -0.000003585812130       -0.000245150040933
        0.442655831750415       -0.000000119911682       -0.000003320513031       -0.000225768089347
        0.445074716076920       -0.000000110229556       -0.000003051557240       -0.000206351504539
        0.447493600403425       -0.000000099433049       -0.000002753598450       -0.000185193251514
        0.449912484729930       -0.000000088576495       -0.000002452120072       -0.000164029089592
        0.452331369056435       -0.000000076714010       -0.000002124661082       -0.000141361763506
        0.454750253382940       -0.000000064798831       -0.000001793865980       -0.000118716861038
        0.457169137709445       -0.000000052003722       -0.000001440598543       -0.000094831395336
        0.459588022035950       -0.000000039164935       -0.000001084224475       -0.000070996031805
        0.462006906362455       -0.000000025588067       -0.000000709325107       -0.000046202726967
        0.464425790688960       -0.000000011978164       -0.000000331593606       -0.000021486302365
        0.466844675015465        0.000000002214125        0.000000060332855        0.000003889818803
        0.469263559341970        0.000000016427240        0.000000454773545        0.000029163410117
        0.471682443668475        0.000000031055472        0.000000858758530        0.000054787480375
