#           time (fs)    |     mu_x (e.angstrom)   |     mu_y (e.angstrom)   |     mu_z (e.angstrom)   |
        0.000000000000000       -0.000000000000000       -0.000000000000000        0.000000000000000
        0.002418884326505       -0.000000000813580        0.000000000205775       -0.000027266040223
        0.004837768653010        0.000000051317149       -0.000000012979796        0.000859917958128
        0.007256652979515        0.000000156434703       -0.000000039567374        0.001747567992559
        0.009675537306020        0.000000421842226       -0.000000106697565        0.003534357650010
        0.012094421632525        0.000000793937122       -0.000000200811989        0.005321501413345
        0.014513305959030        0.000001428178189       -0.000000361231506        0.007977133573516
        0.016932190285535        0.000002220845379       -0.000000561720104        0.010632438437773
        0.019351074612040        0.000003368458391       -0.000000851983606        0.014110753738323
        0.021769958938545        0.000004723268580       -0.000001194646939        0.017587513108527
        0.024188843265050        0.000006513436548       -0.000001647416265        0.021827740710320
        0.026607727591555        0.000008555663031       -0.000002163919572        0.026064671486010
        0.029026611918060        0.000011098262271       -0.000002806954443        0.030992460867719
        0.031445496244565        0.000013933012084       -0.000003523837091        0.035914746268061
        0.033864380571070        0.000017315141721       -0.000004379103273        0.041443426145337
        0.036283264897575        0.000021023982801       -0.000005316909704        0.046963983636326
        0.038702149224080        0.000025307055434       -0.000006399825750        0.052996024060914
        0.041121033550585        0.000029945216356       -0.000007572378467        0.059016974272597
        0.043539917877090        0.000035162673755       -0.000008891218791        0.065445624659811
        0.045958802203595        0.000040756876077       -0.000010305050548        0.071859934027688
        0.048377686530100        0.000046912576338       -0.000011860518927        0.078571007291656
        0.050796570856605        0.000053459542407       -0.000013514477571        0.085264274725638
        0.053215455183110        0.000060526847551       -0.000015299461269        0.092138045870735
        0.055634339509615        0.000067992509550       -0.000017184496817        0.098990402035111
        0.058053223836120        0.000075914085646       -0.000019184007492        0.105903588424089
        0.060472108162625        0.000084233505442       -0.000021283146987        0.112791675159410
        0.062890992489130        0.000092921831662       -0.000023474450500        0.119619465192778
        0.065309876815635        0.000101999826064       -0.000025762962205        0.126418462160323
        0.067728761142140        0.000111338395025       -0.000028115895443        0.133036559180590
        0.070147645468645        0.000121050847714       -0.000030561639943        0.139622224886008
        0.072566529795150        0.000130896027171       -0.000033039108879        0.145908873682652
        0.074985414121655        0.000141091857012       -0.000035603070832        0.152159568560635
        0.077404298448160        0.000151275372563       -0.000038161720362        0.157997532819894
        0.079823182774665        0.000161779118137       -0.000040798710940        0.163796192967581
        0.082242067101170        0.000172111107876       -0.000043389753521        0.169074653320392
        0.084660951427675        0.000182726079740       -0.000046049270145        0.174310684699184
        0.087079835754180        0.000192998664574       -0.000048619457021        0.178927028622823
        0.089498720080685        0.000203510609703       -0.000051246683755        0.183498093069399
        0.091917604407190        0.000213501916902       -0.000053739399646        0.187359569763795
        0.094336488733695        0.000223683133597       -0.000056276328697        0.191173235942116
        0.096755373060200        0.000233161705854       -0.000058632788170        0.194198451417482
        0.099174257386705        0.000242775541838       -0.000061019440344        0.197173685899793
        0.101593141713210        0.000251505059239       -0.000063179961887        0.199293915877680
        0.104012026039715        0.000260310720344       -0.000065355681615        0.201362391869221
        0.106430910366220        0.000268054957955       -0.000067261013548        0.202522692720702
        0.108849794692725        0.000275812549577       -0.000069165812302        0.203629896548652
        0.111268679019230        0.000282340488706       -0.000070758483309        0.203789997377408
        0.113687563345735        0.000288816206890       -0.000072334403849        0.203896115755046
        0.116106447672240        0.000293907213373       -0.000073560069986        0.203031077879580
        0.118525331998745        0.000298878597060       -0.000074752543042        0.202111652128093
        0.120944216325250        0.000302327575293       -0.000075561302722        0.200212285614548
        0.123363100651755        0.000305588726039       -0.000076320467396        0.198258622460114
        0.125781984978260        0.000307211153108       -0.000076668116002        0.195331652978282
        0.128200869304765        0.000308577823724       -0.000076950075403        0.192350985207618
        0.130619753631270        0.000308214564195       -0.000076799271948        0.188418968284745
        0.133038637957775        0.000307529013700       -0.000076567256415        0.184434362388553
        0.135457522284280        0.000305050812871       -0.000075888575946        0.179535346059834
        0.137876406610785        0.000302186322292       -0.000075113987588        0.174585357956433
        0.140295290937290        0.000297497874412       -0.000073886834926        0.168772298786991
        0.142714175263795        0.000292362816793       -0.000072550149162        0.162910382723200
        0.145133059590300        0.000285406305470       -0.000070763511961        0.156250324125164
        0.147551943916805        0.000277947664564       -0.000068855014220        0.149544003817582
        0.149970828243310        0.000268705675662       -0.000066508036192        0.142117029426346
        0.152389712569815        0.000258911911517       -0.000064028374889        0.134646844352490
        0.154808596896320        0.000247409624885       -0.000061130733364        0.126544822879532
        0.157227481222825        0.000235312791361       -0.000058091273657        0.118403066277989
        0.159646365549330        0.000221619366837       -0.000054663349333        0.109728207651841
        0.162065249875835        0.000207296396243       -0.000051086315878        0.101017476174760
        0.164484134202340        0.000191525481878       -0.000047159146580        0.091880721855001
        0.166903018528845        0.000175098565530       -0.000043077547562        0.082712299876716
        0.169321902855350        0.000157407871780       -0.000038692562012        0.073231572927666
        0.171740787181855        0.000139043882285       -0.000034149890943        0.063723677202765
        0.174159671508360        0.000119633784928       -0.000029358422915        0.054022020005009
        0.176578555834865        0.000099542706177       -0.000024408139086        0.044297932651068
        0.178997440161370        0.000078653862528       -0.000019270726672        0.034501561980750
        0.181416324487875        0.000057086216305       -0.000013975519561        0.024687681606971
        0.183835208814380        0.000034996203402       -0.000008560998711        0.014923992203427
        0.186254093140885        0.000012239486542       -0.000002991846090        0.005147834394259
        0.188672977467390       -0.000010741504379        0.000002623748159       -0.004456616950687
        0.191091861793895       -0.000034367331958        0.000008388714374       -0.014068437676960
        0.193510746120400       -0.000057901683988        0.000014123421407       -0.023389935053977
        0.195929630446905       -0.000082049593262        0.000020000223384       -0.032713709274942
        0.198348514773410       -0.000105778248594        0.000025767583847       -0.041633335246246
        0.200767399099915       -0.000130080324079        0.000031667858092       -0.050550216210033
        0.203186283426420       -0.000153629453493        0.000037378469099       -0.058955732282163
        0.205605167752925       -0.000177703746686        0.000043211053164       -0.067353615201718
        0.208024052079430       -0.000200691969813        0.000048774223827       -0.075141234536003
        0.210442936405935       -0.000224149883695        0.000054446840843       -0.082916526930380
        0.212861820732440       -0.000246195887104        0.000059772317453       -0.089992550296784
        0.215280705058945       -0.000268649933810        0.000065193327284       -0.097051804397651
        0.217699589385450       -0.000289380319145        0.000070193055473       -0.103334092550576
        0.220118473711955       -0.000310452079227        0.000075273239334       -0.109595473012669
        0.222537358038460       -0.000329509263776        0.000079863129139       -0.115014731342167
        0.224956242364965       -0.000348837366934        0.000084517473231       -0.120409294223799
        0.227375126691470       -0.000365887354552        0.000088619132322       -0.124910148676914
        0.229794011017975       -0.000383135298707        0.000092768575439       -0.129382910849811
        0.232212895344480       -0.000397875140156        0.000096310975786       -0.132924757670461
        0.234631779670985       -0.000412738768292        0.000099884085991       -0.136435539416851
        0.237050663997490       -0.000424903536770        0.000102805130040       -0.138993155146029
        0.239469548323995       -0.000437117999003        0.000105739676401       -0.141517182626001
        0.241888432650500       -0.000446487118463        0.000107987630304       -0.143081084947365
        0.244307316977005       -0.000455833159797        0.000110232017238       -0.144609343376066
        0.246726201303510       -0.000462235940052        0.000111766780865       -0.145185897682617
        0.249145085630015       -0.000468545371498        0.000113281314931       -0.145725230338799
        0.251563969956520       -0.000471865624197        0.000114075501161       -0.145336501224677
        0.253982854283025       -0.000475025855620        0.000114833462965       -0.144909453709159
        0.256401738609530       -0.000475205487982        0.000114873262071       -0.143592804847073
        0.258820622936035       -0.000475163023978        0.000114861759305       -0.142237218214466
        0.261239507262540       -0.000472204531650        0.000114147568004       -0.140044668162286
        0.263658391589045       -0.000468967356113        0.000113368149437       -0.137813028565403
        0.266077275915550       -0.000462935161622        0.000111914948248       -0.134810373868134
        0.268496160242055       -0.000456573961269        0.000110383962550       -0.131768930102542
        0.270915044568560       -0.000447594569282        0.000108221429454       -0.128034650551907
        0.273333928895065       -0.000438242770470        0.000105970117088       -0.124262314311107
        0.275752813221570       -0.000426503734743        0.000103142469970       -0.119886278352043
        0.278171697548075       -0.000414356350716        0.000100216780846       -0.115473325068822
        0.280590581874580       -0.000400104069522        0.000096782345751       -0.110555316082387
        0.283009466201085       -0.000385415376241        0.000093242479919       -0.105601906930221
        0.285428350527590       -0.000368951752967        0.000089272986813       -0.100249993480321
        0.287847234854095       -0.000352031830721        0.000085192660068       -0.094864541451305
        0.290266119180600       -0.000333709854015        0.000080772272337       -0.089193316580002
        0.292685003507105       -0.000314920049044        0.000076237713262       -0.083490721568340
        0.295103887833610       -0.000295138362515        0.000071461801790       -0.077619437893471
        0.297522772160115       -0.000274885738039        0.000066570491352       -0.071719217427993
        0.299941656486620       -0.000254082283371        0.000061544168540       -0.065769846171478
        0.302360540813125       -0.000232813143086        0.000056403337976       -0.059794189887133
        0.304779425139630       -0.000211457972801        0.000051239771486       -0.053889433070450
        0.307198309466135       -0.000189650552444        0.000045964678756       -0.047961210207313
        0.309617193792640       -0.000168237919949        0.000040783209148       -0.042222496106191
        0.312036078119145       -0.000146394354291        0.000035495218699       -0.036463246278630
        0.314454962445650       -0.000125434199547        0.000030419309352       -0.031008738826897
        0.316873846772155       -0.000104071883567        0.000025243804288       -0.025536676997795
        0.319292731098660       -0.000084080843033        0.000020398855981       -0.020479330143971
        0.321711615425165       -0.000063723317097        0.000015463015834       -0.015407397130062
        0.324130499751670       -0.000045215396605        0.000010974082123       -0.010853085132260
        0.326549384078175       -0.000026382896342        0.000006404563257       -0.006287074998018
        0.328968268404680       -0.000009859955139        0.000002394006059       -0.002332829229461
        0.331387152731185        0.000006940222919       -0.000001685434938        0.001630375473602
        0.333806037057690        0.000020998019887       -0.000005100307338        0.004897993517463
        0.336224921384195        0.000035281176299       -0.000008571204130        0.008172048619288
        0.338643805710700        0.000046424773124       -0.000011280472396        0.010678409842381
        0.341062690037205        0.000057738318529       -0.000014032008106        0.013188969975351
        0.343481574363710        0.000065558879577       -0.000015935404972        0.014872649483645
        0.345900458690215        0.000073491528077       -0.000017866693824        0.016558635629646
        0.348319343016720        0.000077629071993       -0.000018875749254        0.017372470228421
        0.350738227343225        0.000081819537338       -0.000019897994308        0.018187120761033
        0.353157111669730        0.000081970920109       -0.000019938017710        0.018099031868052
        0.355575995996235        0.000082115937644       -0.000019976499308        0.018010716915721
        0.357994880322740        0.000078042015032       -0.000018988355788        0.017004282535761
        0.360413764649245        0.000073903517202       -0.000017984207550        0.015997065565002
        0.362832648975750        0.000065435325247       -0.000015925848266        0.014071829441414
        0.365251533302255        0.000056846607898       -0.000013837580790        0.012145764563327
        0.367670417628760        0.000043890413305       -0.000010685291665        0.009317275529561
        0.370089301955265        0.000030761144329       -0.000007490028528        0.006488434045681
        0.372508186281770        0.000013302234381       -0.000003239366805        0.002788013802222
        0.374927070608275       -0.000004377824670        0.000001066237123       -0.000911761225382
        0.377345954934780       -0.000026272720749        0.000006399842963       -0.005437518351025
        0.379764839261285       -0.000048431386010        0.000011799024654       -0.009961125367136
        0.382183723587790       -0.000074613126111        0.000018180029337       -0.015251111834987
        0.384602607914295       -0.000101094934393        0.000024635699114       -0.020536962498415
        0.387021492240800       -0.000131332495515        0.000032008559939       -0.026516562241394
        0.389440376567305       -0.000161899367478        0.000039463451054       -0.032489597180806
        0.391859260893810       -0.000195881901615        0.000047753115357       -0.039071916980850
        0.394278145220315       -0.000230215341571        0.000056130303940       -0.045644846634134
        0.396697029546820       -0.000267555743798        0.000065243060437       -0.052732151454355
        0.399115913873325       -0.000305260559731        0.000074446850797       -0.059806898996882
        0.401534798199830       -0.000345500504129        0.000084271533434       -0.067292225005317
        0.403953682526335       -0.000386109998905        0.000094188696617       -0.074761544977301
        0.406372566852840       -0.000428726366358        0.000104598222782       -0.082530461158448
        0.408791451179345       -0.000471708919849        0.000115099569634       -0.090279704692888
        0.411210335505850       -0.000516121512270        0.000125952788368       -0.098212191821866
        0.413629219832355       -0.000560888445154        0.000136895052224       -0.106121187367627
        0.416048104158860       -0.000606468854051        0.000148038872448       -0.114093601710769
        0.418466988485365       -0.000652383438109        0.000159266871095       -0.122038618823566
        0.420885872811870       -0.000698464912386        0.000170538634973       -0.129925707192761
        0.423304757138375       -0.000744852369863        0.000181887676690       -0.137781470288410
        0.425723641464880       -0.000790740508683        0.000193117739063       -0.145458402958148
        0.428142525791385       -0.000836898824996        0.000204416233424       -0.153100121829618
        0.430561410117890       -0.000881882906822        0.000215430704767       -0.160444510258093
        0.432980294444395       -0.000927094266892        0.000226502935458       -0.167749894585313
        0.435399178770900       -0.000970459015387        0.000237126543075       -0.174643761793979
        0.437818063097405       -0.001014001664122        0.000247795557214       -0.181494987758284
        0.440236947423910       -0.001055039245518        0.000257854577309       -0.187826660552711
        0.442655831750415       -0.001096199567363        0.000267945143687       -0.194112258948515
        0.445074716076920       -0.001134221611873        0.000277270355573       -0.199778152851442
        0.447493600403425       -0.001172306222721        0.000286611942803       -0.205394789718925
        0.449912484729930       -0.001206655664374        0.000295041555811       -0.210301059490592
        0.452331369056435       -0.001241003311138        0.000303471280664       -0.215155182239690
        0.454750253382940       -0.001271065845642        0.000310853784257       -0.219219213149248
        0.457169137709445       -0.001301058914088        0.000318219280373       -0.223228537382571
        0.459588022035950       -0.001326273882660        0.000324416168678       -0.226380254945864
        0.462006906362455       -0.001351349322366        0.000330578326506       -0.229475069699600
        0.464425790688960       -0.001371219840398        0.000335466649797       -0.231658048397137
        0.466844675015465       -0.001390879326473        0.000340302179999       -0.233782320291503
        0.469263559341970       -0.001404981489141        0.000343776877795       -0.234954674811273
        0.471682443668475       -0.001418800653264        0.000347180652452       -0.236066934621012
