#           time (fs)    |     mu_x (e.angstrom)   |     mu_y (e.angstrom)   |     mu_z (e.angstrom)   |
        0.000000000000000       -0.000000000000000       -0.000000000000000        0.000000000000000
        0.002418884326505       -0.000000003852341       -0.000000009756144       -0.000049907839252
        0.004837768653010        0.000000064055976        0.000000162214358        0.000414913304052
        0.007256652979515        0.000000203999500        0.000000516605313        0.000880819766275
        0.009675537306020        0.000000580384185        0.000001469758530        0.001879254435186
        0.012094421632525        0.000001111608611        0.000002815027122        0.002879143101345
        0.014513305959030        0.000002048042535        0.000005186443881        0.004419984680102
        0.016932190285535        0.000003223277020        0.000008162602405        0.005961890712546
        0.019351074612040        0.000004970554168        0.000012587394428        0.008043611048338
        0.021769958938545        0.000007039777197        0.000017827495383        0.010125210482680
        0.024188843265050        0.000009839881886        0.000024918475050        0.012735892475925
        0.026607727591555        0.000013042267079        0.000033028224151        0.015344451117309
        0.029026611918060        0.000017120435012        0.000043355812594        0.018461898039654
        0.031445496244565        0.000021676429504        0.000054893523871        0.021574397901444
        0.033864380571070        0.000027233491515        0.000068966381724        0.025166418888614
        0.036283264897575        0.000033337218016        0.000084423759320        0.028749861195038
        0.038702149224080        0.000040542412965        0.000102670612348        0.032774729117319
        0.041121033550585        0.000048354581295        0.000122454828981        0.036786609633701
        0.043539917877090        0.000057339015755        0.000145207937276        0.041193684349033
        0.045958802203595        0.000066980519788        0.000169625453246        0.045582633613322
        0.048377686530100        0.000077831439037        0.000197106138217        0.050313140542872
        0.050796570856605        0.000089377801054        0.000226348668144        0.055019718534638
        0.053215455183110        0.000102133818871        0.000258655267214        0.060007669648145
        0.055634339509615        0.000115610625414        0.000292788255377        0.064965301622663
        0.058053223836120        0.000130258039668        0.000329886821363        0.070138543350019
        0.060472108162625        0.000145637491836        0.000368840731983        0.075274581050199
        0.062890992489130        0.000162107789376        0.000410558734152        0.080555951402199
        0.065309876815635        0.000179306466459        0.000454123401740        0.085792841690478
        0.067728761142140        0.000197475095046        0.000500146620058        0.091101417015697
        0.070147645468645        0.000216353004180        0.000547968838676        0.096357958176508
        0.072566529795150        0.000236039461672        0.000597841573566        0.101610368527188
        0.074985414121655        0.000256400418427        0.000649426034153        0.106803033098107
        0.077404298448160        0.000277369680867        0.000702554682755        0.111914824135491
        0.079823182774665        0.000298963036912        0.000757268296202        0.116959126137584
        0.082242067101170        0.000320928318177        0.000812928274229        0.121846144873334
        0.084660951427675        0.000343452023143        0.000870007846069        0.126658028723217
        0.087079835754180        0.000366078829937        0.000927353763331        0.131237810155457
        0.089498720080685        0.000389183785743        0.000985916915126        0.135735038339201
        0.091917604407190        0.000412095203611        0.001043995843907        0.139928170179735
        0.094336488733695        0.000435390841526        0.001103055007882        0.144031686932681
        0.096755373060200        0.000458173960643        0.001160822617656        0.147763130112389
        0.099174257386705        0.000481234944595        0.001219301865896        0.151398378857087
        0.101593141713210        0.000503448308879        0.001275641136449        0.154598722314738
        0.104012026039715        0.000525822243553        0.001332395545003        0.157696895439068
        0.106430910366220        0.000547004183587        0.001386137713641        0.160303524820461
        0.108849794692725        0.000568220183041        0.001439974906024        0.162802725507916
        0.111268679019230        0.000587897872716        0.001489922254090        0.164760886804694
        0.113687563345735        0.000607475825019        0.001539625718763        0.166607184038800
        0.116106447672240        0.000625174884174        0.001584575758831        0.167870924858552
        0.118525331998745        0.000642635230311        0.001628929492047        0.169019284394678
        0.120944216325250        0.000657889681187        0.001667700080674        0.169552257456173
        0.123363100651755        0.000672763512477        0.001705514070354        0.169967333468433
        0.125781984978260        0.000685125886930        0.001736968942825        0.169743449038265
        0.128200869304765        0.000696965154814        0.001767104981600        0.169400223287805
        0.130619753631270        0.000706016542094        0.001790179185363        0.168404139596357
        0.133038637957775        0.000714404167644        0.001811576482318        0.167288397309025
        0.135457522284280        0.000719763989450        0.001825301175429        0.165515840480630
        0.137876406610785        0.000724323657471        0.001837001227031        0.163624474642307
        0.140295290937290        0.000725658958050        0.001840527307400        0.161082382319334
        0.142714175263795        0.000726064382446        0.001841697489154        0.158423520767125
        0.145133059590300        0.000723098426809        0.001834317530167        0.155130006368231
        0.147551943916805        0.000719081879919        0.001824272882144        0.151722958841540
        0.149970828243310        0.000711601862807        0.001805440870637        0.147707096233773
        0.152389712569815        0.000702961771837        0.001783663572412        0.143582121412350
        0.154808596896320        0.000690825453823        0.001753011975998        0.138883552653810
        0.157227481222825        0.000677432882020        0.001719168039776        0.134081448107303
        0.159646365549330        0.000660573986898        0.001676521772119        0.128749819786997
        0.162065249875835        0.000642377835748        0.001630474526707        0.123321340646226
        0.164484134202340        0.000620810064897        0.001575861431098        0.117415577163301
        0.166903018528845        0.000597840855932        0.001517681423501        0.111420692149190
        0.169321902855350        0.000571660400278        0.001451338956311        0.105008116986794
        0.171740787181855        0.000544032520832        0.001381309961313        0.098515113149981
        0.174159671508360        0.000513418979012        0.001303687826800        0.091670431761680
        0.176578555834865        0.000481331304913        0.001222308727027        0.084754881846129
        0.178997440161370        0.000446546946673        0.001134067292233        0.077559042139075
        0.181416324487875        0.000410281785981        0.001042049670579        0.070302650840550
        0.183835208814380        0.000371669132262        0.000944054072417        0.062841599365964
        0.186254093140885        0.000331589467124        0.000842315443924        0.055330946867650
        0.188672977467390        0.000289567192031        0.000735625388272        0.047694300675811
        0.191091861793895        0.000246112229939        0.000625278087843        0.040019503669226
        0.193510746120400        0.000201169424202        0.000511133430787        0.032299159317542
        0.195929630446905        0.000154848504711        0.000393469264639        0.024552471221488
        0.198348514773410        0.000107537374662        0.000273271556962        0.016841173609092
        0.200767399099915        0.000058922312292        0.000149742417450        0.009115546852069
        0.203186283426420        0.000009849422096        0.000025032682987        0.001505441366940
        0.205605167752925       -0.000040434600068       -0.000102772583707       -0.006106924626829
        0.208024052079430       -0.000090618402934       -0.000230339479289       -0.013525732742680
        0.210442936405935       -0.000141903242194       -0.000360721577331       -0.020934833846912
        0.212861820732440       -0.000192514048085       -0.000489405530425       -0.028075688996540
        0.215280705058945       -0.000244100136949       -0.000620584135431       -0.035195124975188
        0.217699589385450       -0.000294433144414       -0.000748590871552       -0.041976176055571
        0.220118473711955       -0.000345601947656       -0.000878736442195       -0.048724501927423
        0.222537358038460       -0.000394944361806       -0.001004250473640       -0.055069979831939
        0.224956242364965       -0.000444971528836       -0.001131517865890       -0.061371977353766
        0.227375126691470       -0.000492615946808       -0.001252736715577       -0.067213373657477
        0.229794011017975       -0.000540784913336       -0.001375299961854       -0.073001221552231
        0.232212895344480       -0.000586042940816       -0.001490468989781       -0.078278348523620
        0.234631779670985       -0.000631658719441       -0.001606556568425       -0.083492671748193
        0.237050663997490       -0.000673874552101       -0.001714003711576       -0.088154585807233
        0.239469548323995       -0.000716277442168       -0.001821933609035       -0.092745366180116
        0.241888432650500       -0.000754841141062       -0.001920103334439       -0.096751139223429
        0.244307316977005       -0.000793420084238       -0.002018317194010       -0.100678472076621
        0.246726201303510       -0.000827780274786       -0.002105802967962       -0.103997797669704
        0.249145085630015       -0.000861985584358       -0.002192898624935       -0.107232481802903
        0.251563969956520       -0.000891661314656       -0.002268473219211       -0.109846106043160
        0.253982854283025       -0.000921016513553       -0.002343234942582       -0.112370057085965
        0.256401738609530       -0.000945608019106       -0.002405877930060       -0.114270026908914
        0.258820622936035       -0.000969720533956       -0.002467303724911       -0.116076507177998
        0.261239507262540       -0.000988918672392       -0.002516225561602       -0.117266231949879
        0.263658391589045       -0.001007489148194       -0.002563550932922       -0.118359892960261
        0.266077275915550       -0.001021083288677       -0.002598213079713       -0.118854018310552
        0.268496160242055       -0.001033913310609       -0.002630930716514       -0.119250755201626
        0.270915044568560       -0.001041797488042       -0.002651061320699       -0.119074851138709
        0.273333928895065       -0.001048795522973       -0.002668936227555       -0.118801471348795
        0.275752813221570       -0.001050972696211       -0.002674540959885       -0.117991539716858
        0.278171697548075       -0.001052158096248       -0.002677620639975       -0.117085251233486
        0.280590581874580       -0.001048742381877       -0.002668988366181       -0.115687060461929
        0.283009466201085       -0.001044247325135       -0.002657607744230       -0.114194787845544
        0.285428350527590       -0.001035464113363       -0.002635310799265       -0.112263045675916
        0.287847234854095       -0.001025533392680       -0.002610091663088       -0.110240584767973
        0.290266119180600       -0.001011717289036       -0.002574980590467       -0.107837962189064
        0.292685003507105       -0.000996705897028       -0.002536825425045       -0.105348986945876
        0.295103887833610       -0.000978296472379       -0.002490018141469       -0.102545008904351
        0.297522772160115       -0.000958664970568       -0.002440098328420       -0.099659946127088
        0.299941656486620       -0.000936200342000       -0.002382963774322       -0.096529766694714
        0.302360540813125       -0.000912508042345       -0.002322702231446       -0.093324556540017
        0.304779425139630       -0.000886616348179       -0.002256838670209       -0.089947638098215
        0.307198309466135       -0.000859512376736       -0.002187887109383       -0.086502400141550
        0.309617193792640       -0.000830901250027       -0.002115095340729       -0.082961117779487
        0.312036078119145       -0.000801113604085       -0.002039306426838       -0.079358744051947
        0.314454962445650       -0.000770557789716       -0.001961558282174       -0.075736937752895
        0.316873846772155       -0.000738880541227       -0.001880953079750       -0.072061635564379
        0.319292731098660       -0.000707207841699       -0.001800355667732       -0.068443133858161
        0.321711615425165       -0.000674486680365       -0.001717086864190       -0.064778942339914
        0.324130499751670       -0.000642562453864       -0.001635843131941       -0.061246081910119
        0.326549384078175       -0.000609678802077       -0.001552154624493       -0.057675387009340
        0.328968268404680       -0.000578389272490       -0.001472520891386       -0.054307553210444
        0.331387152731185       -0.000546243240813       -0.001390704417515       -0.050909626344405
        0.333806037057690       -0.000516477912358       -0.001314945622695       -0.047781839706582
        0.336224921384195       -0.000485970397136       -0.001237295198207       -0.044631425364376
        0.338643805710700       -0.000458603895006       -0.001167638676725       -0.041812998868761
        0.341062690037205       -0.000430618148090       -0.001096403678590       -0.038978976111360
        0.343481574363710       -0.000406491829954       -0.001034992341854       -0.036532267290330
        0.345900458690215       -0.000381874853345       -0.000972330132232       -0.034076409301928
        0.348319343016720       -0.000361778553767       -0.000921175973520       -0.032055690020460
        0.350738227343225       -0.000341322688089       -0.000869105003782       -0.030031544578311
        0.353157111669730       -0.000325976967827       -0.000830043876215       -0.028482009665988
        0.355575995996235       -0.000310402052052       -0.000790398232814       -0.026933921607416
        0.357994880322740       -0.000300441326091       -0.000765046853247       -0.025890855333510
        0.360413764649245       -0.000290377806108       -0.000739433208859       -0.024853149811063
        0.362832648975750       -0.000286334717488       -0.000729149324959       -0.024341266544935
        0.365251533302255       -0.000282308072337       -0.000718907237041       -0.023837609098803
        0.367670417628760       -0.000284599463146       -0.000724753855555       -0.023870581414280
        0.370089301955265       -0.000287016300002       -0.000730920309696       -0.023913527703060
        0.372508186281770       -0.000295931106331       -0.000753634821609       -0.024493711730795
        0.374927070608275       -0.000305067248639       -0.000776913849259       -0.025084456217754
        0.377345954934780       -0.000320756613281       -0.000816882803274       -0.026202820306823
        0.379764839261285       -0.000336747471458       -0.000857620913871       -0.027331149388958
        0.382183723587790       -0.000359217327422       -0.000914861085321       -0.028967408207856
        0.384602607914295       -0.000382050799074       -0.000973029143950       -0.030611859304087
        0.387021492240800       -0.000411157129693       -0.001047175424819       -0.032734811502987
        0.389440376567305       -0.000440669227548       -0.001122357481219       -0.034863035599509
        0.391859260893810       -0.000476116156385       -0.001212657981824       -0.037431099185638
        0.394278145220315       -0.000511989508506       -0.001304047418718       -0.040000420386239
        0.396697029546820       -0.000553330315936       -0.001409366026905       -0.042962356145434
        0.399115913873325       -0.000595095625758       -0.001515769249154       -0.045920518002645
        0.401534798199830       -0.000641736730600       -0.001634595742634       -0.049216327736007
        0.403953682526335       -0.000688777225529       -0.001754443477888       -0.052502412643476
        0.406372566852840       -0.000739985110957       -0.001884911133865       -0.056064395766582
        0.408791451179345       -0.000791543949187       -0.002016277264141       -0.059609900555545
        0.411210335505850       -0.000846454953845       -0.002156187761390       -0.063363849797416
        0.413629219832355       -0.000901645501017       -0.002296815457079       -0.067093897961235
        0.416048104158860       -0.000959278340054       -0.002443670722547       -0.070960412548223
        0.418466988485365       -0.001017097171715       -0.002591005508745       -0.074795081258082
        0.420885872811870       -0.001076367999428       -0.002742046026316       -0.078690974098904
        0.423304757138375       -0.001135710432780       -0.002893275278739       -0.082546712389197
        0.425723641464880       -0.001195450209558       -0.003045524254163       -0.086386486396969
        0.428142525791385       -0.001255128119609       -0.003197622500020       -0.090177599590633
        0.430561410117890       -0.001314102001470       -0.003347935164591       -0.093874967374807
        0.432980294444395       -0.001372863632882       -0.003497714454035       -0.097515141972877
        0.435399178770900       -0.001429792062643       -0.003642831691528       -0.100984562685545
        0.437818063097405       -0.001486343509780       -0.003786996208493       -0.104388405537550
        0.440236947423910       -0.001539924654964       -0.003923601605563       -0.107546612635134
        0.442655831750415       -0.001592952649117       -0.004058805603552       -0.110631178209415
        0.445074716076920       -0.001641885803427       -0.004183584953739       -0.113398672260440
        0.447493600403425       -0.001690081418210       -0.004306493032737       -0.116084952217293
        0.449912484729930       -0.001733090960903       -0.004416195268610       -0.118387433619855
        0.452331369056435       -0.001775173824644       -0.004523543954245       -0.120601783629913
        0.454750253382940       -0.001811033315650       -0.004615042441425       -0.122371501173143
        0.457169137709445       -0.001845775903389       -0.004703701987221       -0.124046980998037
        0.459588022035950       -0.001873331881844       -0.004774055088479       -0.125223973590453
        0.462006906362455       -0.001899583449771       -0.004841090397187       -0.126301577837411
        0.464425790688960       -0.001917778499938       -0.004887600205175       -0.126834788417088
        0.466844675015465       -0.001934488221994       -0.004930329756545       -0.127264547083163
        0.469263559341970       -0.001942382873814       -0.004950597900789       -0.127112789709410
        0.471682443668475       -0.001948621744150       -0.004966649581750       -0.126854719636429
