#           time (fs)       | force (atom_1) (H/b)   |  force (atom_2) (H/b)  |           ...          |  force (atom_N) (H/b)  |
        0.000000000000000       -0.000000000000000       -0.000000000000000       -0.001977038000788       -0.000000000000000       -0.000000000000000        0.001977038000788
        0.120944216325250       -0.000002284888211        0.000007886290638        0.002798124321149        0.000002284888211       -0.000007886290667       -0.002798124321149
        0.241888432650500       -0.000011909457076        0.000045978585000        0.007357296332752        0.000011909457076       -0.000045978585878       -0.007357296332752
        0.362832648975750       -0.000028047986246        0.000122541369530        0.011652781936736        0.000028047986246       -0.000122541368453       -0.011652781936736
        0.483776865301000       -0.000049851686925        0.000209926568565        0.015666949328237        0.000049851686925       -0.000209926562390       -0.015666949328237
        0.604721081626250       -0.000076464964484        0.000329002501152        0.019385646479043        0.000076464964484       -0.000329002496247       -0.019385646479043
        0.725665297951500       -0.000107069098801        0.000457279361560        0.022804401892067        0.000107069098801       -0.000457279370242       -0.022804401892067
        0.846609514276750       -0.000140805077654        0.000612427894913        0.025907595597472        0.000140805077654       -0.000612427913150       -0.025907595597472
        0.967553730602000       -0.000176939125527        0.000782072835558        0.028702149024965        0.000176939125527       -0.000782072839021       -0.028702149024965
        1.088497946927250       -0.000214744938758        0.000905215488880        0.031188756325735        0.000214744938758       -0.000905215464887       -0.031188756325735
        1.209442163252500       -0.000253570755528        0.001112436523602        0.033374067512946        0.000253570755528       -0.001112436497260       -0.033374067512946
        1.330386379577750       -0.000292794169462        0.001303757576787        0.035263066322325        0.000292794169462       -0.001303757583674       -0.035263066322325
        1.451330595903000       -0.000331829947270        0.001408119608429        0.036860960871159        0.000331829947270       -0.001408119647116       -0.036860960871159
        1.572274812228250       -0.000370227608183        0.001626448162523        0.038183499793336        0.000370227608183       -0.001626448187861       -0.038183499793336
        1.693219028553500       -0.000407428465132        0.001792630575244        0.039230383478927        0.000407428465132       -0.001792630551810       -0.039230383478927
        1.814163244878750       -0.000443013672588        0.001912013496424        0.040012949772570        0.000443013672588       -0.001912013449083       -0.040012949772570
        1.935107461204000       -0.000476490031059        0.002106861705761        0.040532799953932        0.000476490031059       -0.002106861691996       -0.040532799953932
        2.056051677529250       -0.000507518572497        0.002192240514171        0.040803079261763        0.000507518572497       -0.002192240552640       -0.040803079261763
        2.176995893854500       -0.000535641314100        0.002332636480957        0.040824848230302        0.000535641314100       -0.002332636525612       -0.040824848230302
        2.297940110179750       -0.000560304107657        0.002492929342568        0.040591908320016        0.000560304107657       -0.002492929339566       -0.040591908320016
        2.418884326505000       -0.000581018161944        0.002494177495014        0.040103832564854        0.000581018161944       -0.002494177449881       -0.040103832564854
        2.539828542830250       -0.000597246172287        0.002608975887134        0.039357327903658        0.000597246172287       -0.002608975855510       -0.039357327903658
        2.660772759155500       -0.000608536146852        0.002687953642068        0.038355453854487        0.000608536146852       -0.002687953659110       -0.038355453854487
        2.781716975480750       -0.000614091265438        0.002644057969079        0.037080479006359        0.000614091265438       -0.002644058009476       -0.037080479006359
        2.902661191806000       -0.000613292174173        0.002702306664577        0.035528500040056        0.000613292174173       -0.002702306679525       -0.035528500040056
        3.023605408131250       -0.000605392720479        0.002626772626484        0.033689996826530        0.000605392720479       -0.002626772605308       -0.033689996826530
        3.144549624456500       -0.000589687868352        0.002541709388288        0.031560059166918        0.000589687868352       -0.002541709361965       -0.031560059166918
        3.265493840781750       -0.000565379419881        0.002514971856338        0.029130795735763        0.000565379419881       -0.002514971854740       -0.029130795735763
        3.386438057107000       -0.000531636899263        0.002259012626295        0.026395065411566        0.000531636899263       -0.002259012642166       -0.026395065411566
        3.507382273432250       -0.000487954649611        0.002103700891127        0.023363617203231        0.000487954649611       -0.002103700901156       -0.023363617203231
        3.628326489757500       -0.000433224869978        0.001920942066240        0.020019299244776        0.000433224869978       -0.001920942064129       -0.020019299244776
        3.749270706082750       -0.000366751482865        0.001506741203691        0.016367139865971        0.000366751482865       -0.001506741199873       -0.016367139865971
        3.870214922408000       -0.000288095022763        0.001245859447018        0.012424116337658        0.000288095022763       -0.001245859446883       -0.012424116337658
        3.991159138733250       -0.000196905560653        0.000828420647704        0.008210257334069        0.000196905560653       -0.000828420645264       -0.008210257334069
        4.112103355058500       -0.000092456799778        0.000287905360652        0.003729300635475        0.000092456799778       -0.000287905356255       -0.003729300635475
        4.233047571383750        0.000024921318386       -0.000117984061898       -0.000972866777385       -0.000024921318386        0.000117984063036        0.000972866777385
        4.353991787709000        0.000155163526816       -0.000791565582582       -0.005864877828144       -0.000155163526816        0.000791565576138        0.005864877828144
        4.474936004034250        0.000297665206389       -0.001427751876509       -0.010898508074009       -0.000297665206389        0.001427751873289        0.010898508074009
        4.595880220359500        0.000451320397862       -0.002015465318037       -0.016012924689564       -0.000451320397862        0.002015465318381        0.016012924689564
        4.716824436684750        0.000613897666554       -0.002870497213220       -0.021115565475077       -0.000613897666554        0.002870497212060        0.021115565475077
        4.837768653010000        0.000783833746304       -0.003561891510156       -0.026147265859766       -0.000783833746304        0.003561891504959        0.026147265859766
        4.958712869335250        0.000958072558281       -0.004316039217251       -0.031008014628641       -0.000958072558281        0.004316039222565        0.031008014628641
        5.079657085660500        0.001132935523119       -0.005186685173376       -0.035590766178430       -0.001132935523119        0.005186685192775        0.035590766178430
        5.200601301985750        0.001304587964275       -0.005847253396751       -0.039797289293130       -0.001304587964275        0.005847253405311        0.039797289293130
        5.321545518311000        0.001468490746857       -0.006660789007574       -0.043521188673666       -0.001468490746857        0.006660788984060        0.043521188673666
        5.442489734636251        0.001619895812437       -0.007353044072161       -0.046663731867427       -0.001619895812437        0.007353044036873        0.046663731867427
        5.563433950961501        0.001754738971784       -0.007835930352276       -0.049157820111508       -0.001754738971784        0.007835930352905        0.049157820111508
        5.684378167286750        0.001868515121783       -0.008485721116109       -0.050933530212806       -0.001868515121783        0.008485721159495        0.050933530212806
        5.805322383612000        0.001957190194451       -0.008847754986791       -0.051942094724968       -0.001957190194451        0.008847755022484        0.051942094724968
        5.926266599937250        0.002017286360789       -0.009044428743304       -0.052155269715655       -0.002017286360789        0.009044428725759        0.052155269715655
        6.047210816262500        0.002045868247773       -0.009302461282695       -0.051561933265727       -0.002045868247773        0.009302461233996        0.051561933265727
        6.168155032587750        0.002041653634765       -0.009172507879502       -0.050192797361827       -0.002041653634765        0.009172507859382        0.050192797361827
        6.289099248913001        0.002003405157080       -0.009043138638894       -0.048076321477949       -0.002003405157080        0.009043138666330        0.048076321477949
        6.410043465238251        0.001931693324321       -0.008827512425611       -0.045279881453522       -0.001931693324321        0.008827512459937        0.045279881453522
        6.530987681563500        0.001827284277870       -0.008174393830575       -0.041868109158224       -0.001827284277870        0.008174393834020        0.041868109158224
        6.651931897888750        0.001692081123628       -0.007710635869871       -0.037924120972707       -0.001692081123628        0.007710635848482        0.037924120972707
        6.772876114214000        0.001529925745915       -0.007010001174041       -0.033565097701791       -0.001529925745915        0.007010001162457        0.033565097701791
        6.893820330539250        0.001343259715340       -0.006028740220619       -0.028867137313997       -0.001343259715340        0.006028740223557        0.028867137313997
        7.014764546864500        0.001137413059852       -0.005297906884459       -0.023959942624035       -0.001137413059852        0.005297906890547        0.023959942624035
        7.135708763189751        0.000916689583052       -0.004192036147833       -0.018941056665748       -0.000916689583052        0.004192036147134        0.018941056665748
        7.256652979515001        0.000684215976035       -0.003145604397100       -0.013876220331490       -0.000684215976035        0.003145604396236        0.013876220331490
        7.377597195840250        0.000444740481783       -0.002234243420299       -0.008858339060586       -0.000444740481783        0.002234243425182        0.008858339060586
        7.498541412165500        0.000201813845483       -0.000923679459716       -0.003950250307425       -0.000201813845483        0.000923679461233        0.003950250307425
        7.619485628490750       -0.000040487416170       -0.000001089957306        0.000779239277890        0.000040487416170        0.000001089959351       -0.000779239277890
        7.740429844816000       -0.000280088239971        0.001042638717628        0.005303437859245        0.000280088239971       -0.001042638721657       -0.005303437859245
        7.861374061141250       -0.000513795069871        0.002302056128394        0.009576078600381        0.000513795069871       -0.002302056128668       -0.009576078600381
        7.982318277466501       -0.000739841375506        0.003026841866333        0.013579424898455        0.000739841375506       -0.003026841876104       -0.013579424898455
        8.103262493791750       -0.000957349472546        0.004165242261320        0.017312308518927        0.000957349472546       -0.004165242266004       -0.017312308518927
        8.224206710117000       -0.001163183309644        0.005168283216309        0.020732807036587        0.001163183309644       -0.005168283208285       -0.020732807036587
        8.345150926442249       -0.001356104748096        0.005728354110537        0.023834147741101        0.001356104748096       -0.005728354086748       -0.023834147741101
        8.466095142767500       -0.001537509477380        0.006861135611197        0.026655028707858        0.001537509477380       -0.006861135601500       -0.026655028707858
        8.587039359092751       -0.001704882306416        0.007495084298747        0.029164673457385        0.001704882306416       -0.007495084325418       -0.029164673457385
        8.707983575418000       -0.001857866116835        0.008009722691773        0.031369901446872        0.001857866116835       -0.008009722724560       -0.031369901446872
        8.828927791743251       -0.001997536842942        0.008971202151467        0.033300664511308        0.001997536842942       -0.008971202152915       -0.033300664511308
        8.949872008068500       -0.002121970605954        0.009232832614214        0.034935670261151        0.002121970605954       -0.009232832565952       -0.034935670261151
        9.070816224393750       -0.002231611548842        0.009809546620153        0.036292943967723        0.002231611548842       -0.009809546582423       -0.036292943967723
        9.191760440718999       -0.002326170845995        0.010421958568360        0.037377543513910        0.002326170845995       -0.010421958586179       -0.037377543513910
        9.312704657044250       -0.002406490094651        0.010408130866405        0.038212101458381        0.002406490094651       -0.010408130926734       -0.038212101458381
        9.433648873369501       -0.002473152223594        0.011036281507296        0.038813984249983        0.002473152223594       -0.011036281537028       -0.038813984249983
        9.554593089694750       -0.002523516312166        0.011213740292854        0.039149652552956        0.002523516312166       -0.011213740253841       -0.039149652552956
        9.675537306020001       -0.002557476366268        0.011099264797408        0.039225917956118        0.002557476366268       -0.011099264735863       -0.039225917956118
        9.796481522345250       -0.002577026680820        0.011589105183202        0.039081126581463        0.002577026680820       -0.011589105173022       -0.039081126581463
        9.917425738670500       -0.002580905346224        0.011323709026057        0.038703113506375        0.002580905346224       -0.011323709077044       -0.038703113506375
       10.038369954995749       -0.002567865663185        0.011276799714059        0.038080538698635        0.002567865663185       -0.011276799766076       -0.038080538698635
       10.159314171321000       -0.002536795395508        0.011416200242281        0.037204633911006        0.002536795395508       -0.011416200232021       -0.037204633911006
       10.280258387646251       -0.002486249422558        0.010776600484046        0.036062329714167        0.002486249422558       -0.010776600434927       -0.036062329714167
       10.401202603971500       -0.002417783385619        0.010760972849304        0.034684362810873        0.002417783385619       -0.010760972818126       -0.034684362810873
       10.522146820296751       -0.002328154709654        0.010400011217536        0.033032276538883        0.002328154709654       -0.010400011238101       -0.033032276538883
       10.643091036622000       -0.002215865392705        0.009552640392682        0.031094033601315        0.002215865392705       -0.009552640433987       -0.031094033601315
       10.764035252947250       -0.002082805356620        0.009366633589347        0.028905463727880        0.002082805356620       -0.009366633599337       -0.028905463727880
       10.884979469272501       -0.001924939375776        0.008442677337768        0.026419864267281        0.001924939375776       -0.008442677323381       -0.026419864267281
       11.005923685597750       -0.001741615372452        0.007521738398596        0.023638898001047        0.001741615372452       -0.007521738373826       -0.023638898001047
       11.126867901923001       -0.001533004845275        0.006923971497736        0.020575669499575        0.001533004845275       -0.006923971498441       -0.020575669499575
       11.247812118248250       -0.001298424604606        0.005485815555339        0.017231850553216        0.001298424604606       -0.005485815556636       -0.017231850553216
       11.368756334573501       -0.001038839983997        0.004503559383492        0.013631183120667        0.001038839983997       -0.004503559391442       -0.013631183120667
       11.489700550898750       -0.000751553309082        0.003341574016219        0.009749349121357        0.000751553309082       -0.003341574018973       -0.009749349121357
       11.610644767224001       -0.000436589576702        0.001542143622302        0.005598584235559        0.000436589576702       -0.001542143631168       -0.005598584235559
       11.731588983549251       -0.000100129880336        0.000391415455620        0.001269151284148        0.000100129880336       -0.000391415457258       -0.001269151284148
       11.852533199874500        0.000261313198204       -0.001361042713919       -0.003273476382201       -0.000261313198204        0.001361042726797        0.003273476382201
       11.973477416199751        0.000643082342793       -0.003293810170464       -0.007960975593839       -0.000643082342793        0.003293810177137        0.007960975593839
       12.094421632525000        0.001038486721796       -0.004708672332622       -0.012702986979470       -0.001038486721796        0.004708672333538        0.012702986979470
       12.215365848850251        0.001449274782666       -0.006882814039221       -0.017515217086692       -0.001449274782666        0.006882814024846        0.017515217086692
       12.336310065175500        0.001865147058978       -0.008710240439870       -0.022268701393458       -0.001865147058978        0.008710240439822        0.022268701393458
       12.457254281500751        0.002277675656394       -0.010366482092086       -0.026862815129098       -0.002277675656394        0.010366482093714        0.026862815129098
       12.578198497826001        0.002685121778265       -0.012601327321923       -0.031280031815067       -0.002685121778265        0.012601327321024        0.031280031815067
       12.699142714151250        0.003070126006085       -0.014050787730884       -0.035324404394994       -0.003070126006085        0.014050787724431        0.035324404394994
       12.820086930476501        0.003429630885560       -0.015710695525891       -0.038972722275467       -0.003429630885560        0.015710695531397        0.038972722275467
       12.941031146801750        0.003756178457305       -0.017497808050634       -0.042154315404240       -0.003756178457305        0.017497808070795        0.042154315404240
       13.061975363127001        0.004031778566983       -0.018362318693623       -0.044686070248778       -0.004031778566983        0.018362318698759        0.044686070248778
       13.182919579452250        0.004258656633408       -0.019653704716828       -0.046616024757283       -0.004258656633408        0.019653704695890        0.046616024757283
       13.303863795777501        0.004423792050416       -0.020453657043237       -0.047825847550528       -0.004423792050416        0.020453657016068        0.047825847550528
       13.424808012102751        0.004521383898780       -0.020616247102015       -0.048280754123773       -0.004521383898780        0.020616247106284        0.048280754123773
