#             time (fs)      |   total net charge (e)  |   charge (atom_1) (e)   |   charge (atom_2) (e)   |        ...        |   charge (atom_N) (e)   |
          0.000000000000000       -0.000000000000000       -0.000000000000000        0.000000000000000
          0.120944216325250       -0.000000000001774       -0.000140237192008        0.000140237190233
          0.241888432650500       -0.000000000066112       -0.000523541441617        0.000523541375505
          0.362832648975750       -0.000000000191656        0.000377365335790       -0.000377365527446
          0.483776865301000       -0.000000000347991        0.000656120994564       -0.000656121342555
          0.604721081626250       -0.000000000577249        0.001277865932476       -0.001277866509725
          0.725665297951500       -0.000000000790160       -0.001694505545512        0.001694504755352
          0.846609514276750       -0.000000001058042       -0.000779558301030        0.000779557242988
          0.967553730602000       -0.000000001273055       -0.001627998887805        0.001627997614750
          1.088497946927250       -0.000000001591763        0.003274999583317       -0.003275001175080
          1.209442163252500       -0.000000001791053        0.001004954646236       -0.001004956437289
          1.330386379577750       -0.000000002039946        0.000627166783274       -0.000627168823220
          1.451330595903000       -0.000000002224367       -0.003859091348060        0.003859089123693
          1.572274812228250       -0.000000002423214       -0.001873649025731        0.001873646602517
          1.693219028553500       -0.000000002581825        0.002083769355461       -0.002083771937286
          1.814163244878750       -0.000000002678448        0.003274162899491       -0.003274165577940
          1.935107461204000       -0.000000002763932        0.002414211005876       -0.002414213769807
          2.056051677529250       -0.000000002805108       -0.004723636910650        0.004723634105542
          2.176995893854500       -0.000000002810796       -0.003124464579004        0.003124461768208
          2.297940110179750       -0.000000002781915       -0.000699201940945        0.000699199159030
          2.418884326505000       -0.000000002695300        0.005394950153430       -0.005394952848729
          2.539828542830250       -0.000000002583983        0.003920171946671       -0.003920174530654
          2.660772759155500       -0.000000002430338       -0.002779718660964        0.002779716230626
          2.781716975480750       -0.000000002267604       -0.004960430159135        0.004960427891531
          2.902661191806000       -0.000000002088878       -0.003753701789394        0.003753699700516
          3.023605408131250       -0.000000001746669        0.005570742508000       -0.005570744254669
          3.144549624456500       -0.000000001567001        0.004941686085478       -0.004941687652479
          3.265493840781750       -0.000000001293202        0.001508879355314       -0.001508880648516
          3.386438057107000       -0.000000001003511       -0.006822706906792        0.006822705903280
          3.507382273432250       -0.000000000726024       -0.004996762492478        0.004996761766454
          3.628326489757500       -0.000000000437128        0.001729905984297       -0.001729906421424
          3.749270706082750       -0.000000000216270        0.007179460055531       -0.007179460271801
          3.870214922408000       -0.000000000014632        0.004069980564020       -0.004069980578652
          3.991159138733250        0.000000000236230       -0.004729325310351        0.004729325546580
          4.112103355058500        0.000000000252287       -0.007120419955720        0.007120420208007
          4.233047571383750        0.000000000322513       -0.001959747419924        0.001959747742438
          4.353991787709000        0.000000000440798        0.006836640801442       -0.006836640360644
          4.474936004034250        0.000000000212435        0.006645371994259       -0.006645371781824
          4.595880220359500        0.000000000134196       -0.001193170622634        0.001193170756830
          4.716824436684750       -0.000000000067420       -0.007716993202848        0.007716993135428
          4.837768653010000       -0.000000000467722       -0.005903429115480        0.005903428647758
          4.958712869335250       -0.000000000635709        0.004995723741275       -0.004995724376984
          5.079657085660500       -0.000000001092355        0.007396484290354       -0.007396485382709
          5.200601301985750       -0.000000001484858        0.004312459698202       -0.004312461183060
          5.321545518311000       -0.000000001784822       -0.008019063787438        0.008019062002616
          5.442489734636251       -0.000000002172608       -0.007428014759438        0.007428012586830
          5.563433950961501       -0.000000002446338       -0.000273167211875        0.000273164765537
          5.684378167286750       -0.000000002637975        0.008512977433525       -0.008512980071501
          5.805322383612000       -0.000000002783583        0.008127473543542       -0.008127476327125
          5.926266599937250       -0.000000002807870       -0.004895755893528        0.004895753085658
          6.047210816262500       -0.000000002737081       -0.008941634530875        0.008941631793794
          6.168155032587750       -0.000000002546332       -0.005834015837185        0.005834013290853
          6.289099248913001       -0.000000002384087        0.007463345200012       -0.007463347584099
          6.410043465238251       -0.000000002012751        0.011090946242509       -0.011090948255259
          6.530987681563500       -0.000000001676605        0.000602884088633       -0.000602885765238
          6.651931897888750       -0.000000001387114       -0.009124546139602        0.009124544752488
          6.772876114214000       -0.000000000808999       -0.011461259024140        0.011461258215141
          6.893820330539250       -0.000000000728712        0.004182453532021       -0.004182454260733
          7.014764546864500       -0.000000000347386        0.011771057203913       -0.011771057551299
          7.135708763189751        0.000000000070624        0.008846989702157       -0.008846989631533
          7.256652979515001       -0.000000000089560       -0.008442710390971        0.008442710301411
          7.377597195840250        0.000000000277788       -0.013774908872396        0.013774909150184
          7.498541412165500        0.000000000350119       -0.004503826730875        0.004503827080994
          7.619485628490750       -0.000000000144732        0.012914806877078       -0.012914807021810
          7.740429844816000        0.000000000258688        0.013661555552005       -0.013661555293317
          7.861374061141250       -0.000000000156917       -0.000748179348931        0.000748179192014
          7.982318277466501       -0.000000000576041       -0.017131859298753        0.017131858722711
          8.103262493791750       -0.000000000398913       -0.010938721711066        0.010938721312152
          8.224206710117000       -0.000000001052528        0.006520407350845       -0.006520408403373
          8.345150926442249       -0.000000001336090        0.020017124172234       -0.020017125508323
          8.466095142767500       -0.000000001483455        0.005993091198037       -0.005993092681492
          8.587039359092751       -0.000000002115657       -0.012544088304525        0.012544086188868
          8.707983575418000       -0.000000001979523       -0.020055992629224        0.020055990649702
          8.828927791743251       -0.000000002558574       -0.000012989260980        0.000012986702405
          8.949872008068500       -0.000000002995248        0.018588333273611       -0.018588336268859
          9.070816224393750       -0.000000002819835        0.016280118094608       -0.016280120914443
          9.191760440718999       -0.000000003256731       -0.006027078352776        0.006027075096045
          9.312704657044250       -0.000000003402351       -0.023153900073197        0.023153896670846
          9.433648873369501       -0.000000003445007       -0.009860059265501        0.009860055820494
          9.554593089694750       -0.000000003589687        0.012623878329542       -0.012623881919229
          9.675537306020001       -0.000000003562935        0.023596263775868       -0.023596267338803
          9.796481522345250       -0.000000003547272        0.003165081851570       -0.003165085398842
          9.917425738670500       -0.000000003401147       -0.019698384463431        0.019698381062284
         10.038369954995749       -0.000000003516439       -0.019401160877147        0.019401157360708
         10.159314171321000       -0.000000003179472        0.003480465199602       -0.003480468379074
         10.280258387646251       -0.000000002829666        0.024577573085811       -0.024577575915477
         10.401202603971500       -0.000000002947231        0.012982534059042       -0.012982537006273
         10.522146820296751       -0.000000002298898       -0.010933271913770        0.010933269614872
         10.643091036622000       -0.000000002334549       -0.024995739532770        0.024995737198221
         10.764035252947250       -0.000000001948954       -0.006133066199143        0.006133064250189
         10.884979469272501       -0.000000001056596        0.018080683417711       -0.018080684474307
         11.005923685597750       -0.000000001552460        0.021470755148368       -0.021470756700828
         11.126867901923001       -0.000000000759325       -0.001099681000994        0.001099680241670
         11.247812118248250       -0.000000000077712       -0.022872069715888        0.022872069638176
         11.368756334573501       -0.000000000643827       -0.015621186260280        0.015621185616453
         11.489700550898750        0.000000000400781        0.008367525454489       -0.008367525053708
         11.610644767224001        0.000000000497747        0.024322298996597       -0.024322298498850
         11.731588983549251        0.000000000224609        0.008476753270854       -0.008476753046246
         11.852533199874500        0.000000001072135       -0.014789017901429        0.014789018973564
         11.973477416199751        0.000000000396128       -0.022566070987298        0.022566071383426
         12.094421632525000        0.000000000660443       -0.000992759921359        0.000992760581803
         12.215365848850251        0.000000000913016        0.019712560910816       -0.019712559997800
         12.336310065175500        0.000000000003454        0.017808845175927       -0.017808845172473
         12.457254281500751        0.000000000347621       -0.005781730524893        0.005781730872513
         12.578198497826001       -0.000000000050986       -0.023038622728943        0.023038622677957
         12.699142714151250       -0.000000000690922       -0.010701147793086        0.010701147102164
         12.820086930476501       -0.000000000539553        0.011581569283576       -0.011581569823129
         12.941031146801750       -0.000000001154923        0.023589363032337       -0.023589364187260
         13.061975363127001       -0.000000001396119        0.003505555058708       -0.003505556454827
         13.182919579452250       -0.000000001440924       -0.017993158327681        0.017993156886757
         13.303863795777501       -0.000000001783302       -0.019605739270159        0.019605737486857
         13.424808012102751       -0.000000001767744        0.002301286856941       -0.002301288624685
         13.545752228428000       -0.000000001791075        0.023902013074295       -0.023902014865370
         13.666696444753251       -0.000000001542308        0.013609248984701       -0.013609250527010
         13.787640661078500       -0.000000001588938       -0.009840940550085        0.009840938961147
         13.908584877403751       -0.000000001170093       -0.025206259282365        0.025206258112271
         14.029529093729000       -0.000000000710507       -0.008338488013859        0.008338487303353
         14.150473310054251       -0.000000001030438        0.019120470745955       -0.019120471776393
         14.271417526379501        0.000000000023201        0.022887186608603       -0.022887186585402
         14.392361742704750        0.000000000078454        0.001323897463423       -0.001323897384969
         14.513305959030001       -0.000000000190838       -0.026337954179336        0.026337953988498
         14.634250175355250        0.000000001062018       -0.018965486227954        0.018965487289972
         14.755194391680501        0.000000000263295        0.008197945968031       -0.008197945704736
         14.876138608005750        0.000000000445300        0.030406286746130       -0.030406286300830
         14.997082824331001        0.000000001234424        0.012621546738102       -0.012621545503678
         15.118027040656251       -0.000000000200602       -0.018275137723709        0.018275137523107
         15.238971256981500        0.000000000838194       -0.031379856563841        0.031379857402034
         15.359915473306751        0.000000000248842       -0.003210703266160        0.003210703515002
         15.480859689632000       -0.000000000888885        0.027064050724531       -0.027064051613416
         15.601803905957251        0.000000000416941        0.028769810142599       -0.028769809725657
         15.722748122282500       -0.000000001390879       -0.008468586715767        0.008468585324888
         15.843692338607751       -0.000000001551639       -0.033251772943668        0.033251771392029
         15.964636554933001       -0.000000000562315       -0.021856928518306        0.021856927955991
         16.085580771258250       -0.000000002891851        0.020449131914082       -0.020449134805933
         16.206524987583499       -0.000000002284678        0.036125587128352       -0.036125589413031
         16.327469203908752       -0.000000002266627        0.010392307787071       -0.010392310053698
         16.448413420234001       -0.000000003593224       -0.030311594551206        0.030311590957982
         16.569357636559250       -0.000000002872023       -0.035006758933786        0.035006756061763
         16.690301852884499       -0.000000003748758        0.004174461665908       -0.004174465414666
         16.811246069209751       -0.000000003993934        0.036915306501748       -0.036915310495681
         16.932190285535000       -0.000000003579118        0.028454976355208       -0.028454979934326
         17.053134501860249       -0.000000004178777       -0.018240990395300        0.018240986216523
         17.174078718185502       -0.000000004103974       -0.040439076991245        0.040439072887271
         17.295022934510751       -0.000000004141650       -0.015959677971291        0.015959673829641
         17.415967150836000       -0.000000003859615        0.028997439241083       -0.028997443100699
         17.536911367161249       -0.000000004059989        0.039745054552552       -0.039745058612541
         17.657855583486501       -0.000000003748712        0.000528271513327       -0.000528275262039
         17.778799799811750       -0.000000003209354       -0.036490745976730        0.036490742767376
         17.899744016136999       -0.000000004082618       -0.032829962632807        0.032829958550189
         18.020688232462252       -0.000000002445131        0.013644297806948       -0.013644300252079
         18.141632448787501       -0.000000002371956        0.040693865375933       -0.040693867747889
         18.262576665112750       -0.000000003274493        0.020437326724713       -0.020437329999206
         18.383520881437999       -0.000000001007839       -0.024858355340346        0.024858354332506
         18.504465097763251       -0.000000001958722       -0.040147400457065        0.040147398498343
         18.625409314088500       -0.000000001433340       -0.005825063513392        0.005825062080052
         18.746353530413749        0.000000000288925        0.032765911918552       -0.032765911629627
         18.867297746739002       -0.000000001527326        0.034250825125396       -0.034250826652722
         18.988241963064251        0.000000000682290       -0.008323930194658        0.008323930876948
         19.109186179389500        0.000000000845035       -0.036741941389466        0.036741942234501
         19.230130395714749       -0.000000000842506       -0.024315135554669        0.024315134712163
         19.351074612040001        0.000000002210253        0.020452696914673       -0.020452694704420
         19.472018828365250        0.000000000671346        0.036279185137759       -0.036279184466412
         19.592963044690499        0.000000000218588        0.012140399689813       -0.012140399471226
         19.713907261015752        0.000000002316211       -0.029488266770888        0.029488269087099
         19.834851477341001        0.000000000042467       -0.031962750778648        0.031962750821115
         19.955795693666250        0.000000000820854        0.000976301283981       -0.000976300463126
         20.076739909991499        0.000000001278877        0.034278166729211       -0.034278165450334
         20.197684126316751       -0.000000000543188        0.025158085286013       -0.025158085829201
         20.318628342642000        0.000000000612886       -0.014247403297493        0.014247403910379
         20.439572558967249       -0.000000000216724       -0.034624231342591        0.034624231125867
         20.560516775292502       -0.000000000956259       -0.016245349186481        0.016245348230222
         20.681460991617751       -0.000000000295198        0.025279244993764       -0.025279245288962
         20.802405207943000       -0.000000001032084        0.032793322289580       -0.032793323321664
         20.923349424268253       -0.000000001029400        0.003617479505948       -0.003617480535348
         21.044293640593501       -0.000000001035817       -0.031484964862590        0.031484963826773
         21.165237856918750       -0.000000000788270       -0.029582104200772        0.029582103412502
         21.286182073243999       -0.000000001033655        0.010618552757973       -0.010618553791627
         21.407126289569252       -0.000000000766746        0.035259216789861       -0.035259217556607
         21.528070505894501        0.000000000207319        0.021354658746916       -0.021354658539598
         21.649014722219750       -0.000000000876839       -0.022204558243223        0.022204557366384
         21.769958938545003        0.000000000511959       -0.037966180127737        0.037966180639696
         21.890903154870252        0.000000000858903       -0.008399560032593        0.008399560891497
         22.011847371195501       -0.000000000505608        0.031724612814310       -0.031724613319918
         22.132791587520749        0.000000002062884        0.036487844386511       -0.036487842323627
         22.253735803846002        0.000000000433647       -0.006206944736430        0.006206945170078
         22.374680020171251        0.000000000121744       -0.039688274941603        0.039688275063347
         22.495624236496500        0.000000002806303       -0.029477062127784        0.029477064934087
         22.616568452821753       -0.000000000918637        0.021252382084025       -0.021252383002662
         22.737512669147002        0.000000000766687        0.044212655484076       -0.044212654717388
         22.858456885472251        0.000000001788343        0.017597493360465       -0.017597491572122
         22.979401101797500       -0.000000002215082       -0.035636821379722        0.035636819164640
         23.100345318122752        0.000000000925899       -0.043539410307799        0.043539411233698
