#           time (fs)    |     mu_x (e.angstrom)   |     mu_y (e.angstrom)   |     mu_z (e.angstrom)   |
        0.000000000000000       -0.000000000000000       -0.000000000000000        0.000000000000000
        0.002418884326505        0.000000000744637        0.000000000595142       -0.000004209575787
        0.004837768653010        0.000000002981909        0.000000002385934       -0.000008434428404
        0.007256652979515        0.000000006679760        0.000000005342714       -0.000012589422822
        0.009675537306020       -0.000000048234480       -0.000000038594216        0.000068186905400
        0.012094421632525       -0.000000131753899       -0.000000105424505        0.000148975019058
        0.014513305959030       -0.000000422373148       -0.000000337956520        0.000397887137976
        0.016932190285535       -0.000000800471987       -0.000000640491847        0.000646206111182
        0.019351074612040       -0.000001617520439       -0.000001294238410        0.001142315615558
        0.021769958938545       -0.000002607140073       -0.000002086074911        0.001636269096195
        0.024188843265050       -0.000004342702030       -0.000003474757687        0.002452436532934
        0.026607727591555       -0.000006358245856       -0.000005087474164        0.003263535942078
        0.029026611918060       -0.000009490633258       -0.000007593809010        0.004464399575113
        0.031445496244565       -0.000013027620199       -0.000010423887430        0.005655573298565
        0.033864380571070       -0.000018102275363       -0.000014484303982        0.007295676332171
        0.036283264897575       -0.000023717159076       -0.000018976982039        0.008919438032372
        0.038702149224080       -0.000031324066883       -0.000025063550353        0.011041545147090
        0.041121033550585       -0.000039610732320       -0.000031694015492        0.013138361945965
        0.043539917877090       -0.000050358928269       -0.000040294048955        0.015772004303086
        0.045958802203595       -0.000061922487480       -0.000049546471455        0.018368903522574
        0.048377686530100       -0.000076412351114       -0.000061140357671        0.021529188566797
        0.050796570856605       -0.000091840959585       -0.000073485339914        0.024638638430075
        0.053215455183110       -0.000110635072170       -0.000088523222782        0.028325356699358
        0.055634339509615       -0.000130470570647       -0.000104394308787        0.031944451769279
        0.058053223836120       -0.000154063986670       -0.000123272301545        0.036141507447713
        0.060472108162625       -0.000178772236516       -0.000143042241320        0.040251483607097
        0.062890992489130       -0.000207563066050       -0.000166078888312        0.044926668803843
        0.065309876815635       -0.000237504884498       -0.000190036382219        0.049492765398496
        0.067728761142140       -0.000271766104164       -0.000217450103729        0.054597890313310
        0.070147645468645       -0.000307169716284       -0.000245777760446        0.059569568948975
        0.072566529795150       -0.000347023118278       -0.000277666008278        0.065040951525430
        0.074985414121655       -0.000387959023776       -0.000310420234956        0.070352472310304
        0.077404298448160       -0.000433352174936       -0.000346741056476        0.076111782104606
        0.079823182774665       -0.000479711280455       -0.000383834561741        0.081683129305962
        0.082242067101170       -0.000530398298147       -0.000424391217925        0.087638571579265
        0.084660951427675       -0.000581874091991       -0.000465578749342        0.093376712182397
        0.087079835754180       -0.000637400954179       -0.000510007960807        0.099424530114317
        0.089498720080685       -0.000693476404267       -0.000554875821557        0.105224981065702
        0.091917604407190       -0.000753171402090       -0.000602640129334        0.111251246879024
        0.094336488733695       -0.000813111144558       -0.000650599928078        0.116999920209045
        0.096755373060200       -0.000876080962747       -0.000700984557452        0.122882580173451
        0.099174257386705       -0.000938929223543       -0.000751271545337        0.128457869948585
        0.101593141713210       -0.001004061002509       -0.000803386055860        0.134069003837960
        0.104012026039715       -0.001068645562846       -0.000855062299384        0.139344075063232
        0.106430910366220       -0.001134615161405       -0.000907847196270        0.144552327669561
        0.108849794692725       -0.001199557544559       -0.000959809728025        0.149397564777588
        0.111268679019230       -0.001264844087788       -0.001012048102520        0.154070705387203
        0.113687563345735       -0.001328576012526       -0.001063042086045        0.158356276611090
        0.116106447672240       -0.001391482677542       -0.001113376246994        0.162363841668474
        0.118525331998745       -0.001452268694062       -0.001162013088451        0.165962335112899
        0.120944216325250       -0.001510949558367       -0.001208966044752        0.169178309310112
        0.123363100651755       -0.001566915656072       -0.001253746282842        0.171967396577954
        0.125781984978260       -0.001619408307827       -0.001295747836221        0.174272887978928
        0.128200869304765       -0.001668576159400       -0.001335088541904        0.176137971463222
        0.130619753631270       -0.001712839645156       -0.001370505650372        0.177423836708606
        0.133038637957775       -0.001753166026629       -0.001402771968081        0.178260636870249
        0.135457522284280       -0.001787123587742       -0.001429942940977        0.178430012807218
        0.137876406610785       -0.001816544387862       -0.001453483301901        0.178147051783690
        0.140295290937290       -0.001838130310855       -0.001470755286626        0.177117749947261
        0.142714175263795       -0.001854608414297       -0.001483939721633        0.175638687665828
        0.145133059590300       -0.001861818192618       -0.001489708839934        0.173345407965275
        0.147551943916805       -0.001863394391198       -0.001490969715340        0.170611186694715
        0.149970828243310       -0.001854337267823       -0.001483723104553        0.167007506627840
        0.152389712569815       -0.001839183224361       -0.001471597500340        0.162978259849479
        0.154808596896320       -0.001812136060099       -0.001449956415361        0.158038355883974
        0.157227481222825       -0.001778608225763       -0.001423129266374        0.152695037842931
        0.159646365549330       -0.001732069522928       -0.001385892305905        0.146415096662134
        0.162065249875835       -0.001678762797405       -0.001343239337340        0.139760790371909
        0.164484134202340       -0.001611505609462       -0.001289424778743        0.132160069823762
        0.166903018528845       -0.001537305441691       -0.001230054193935        0.124220933976990
        0.169321902855350       -0.001448427825801       -0.001158940362053        0.115342437201930
        0.171740787181855       -0.001352559390592       -0.001082232190648        0.106168256756700
        0.174159671508360       -0.001241531019340       -0.000993394753422        0.096078988283896
        0.176578555834865       -0.001123604079386       -0.000899036747331        0.085743299554740
        0.178997440161370       -0.000990307628186       -0.000792381831257        0.074534079264268
        0.181416324487875       -0.000850355708700       -0.000680400809980        0.063133848195658
        0.183835208814380       -0.000695121681732       -0.000556192865480        0.050918667851607
        0.186254093140885       -0.000533634250354       -0.000426980464736        0.038573509604248
        0.188672977467390       -0.000357268002830       -0.000285863887542        0.025488426899401
        0.191091861793895       -0.000175214461492       -0.000140195756361        0.012339365586226
        0.193510746120400        0.000020985681177        0.000016790614781       -0.001459058133308
        0.195929630446905        0.000222141225535        0.000177742995158       -0.015251279261592
        0.198348514773410        0.000436375665089        0.000349159235319       -0.029587979763053
        0.200767399099915        0.000654669683699        0.000523824777029       -0.043845015758960
        0.203186283426420        0.000884639754610        0.000707831639927       -0.058528835884047
        0.205605167752925        0.001117615234859        0.000894244399444       -0.073057252090569
        0.208024052079430        0.001360536362641        0.001088613845918       -0.087883720960325
        0.210442936405935        0.001605259749492        0.001284426579304       -0.102477856369827
        0.212861820732440        0.001857885744981        0.001486561216063       -0.117232288595584
        0.215280705058945        0.002110974973182        0.001689067808463       -0.131677418869317
        0.217699589385450        0.002369633382516        0.001896029172871       -0.146138277036106
        0.220118473711955        0.002627296828125        0.002102195805026       -0.160214018842335
        0.222537358038460        0.002887935002994        0.002310741227539       -0.174156477082398
        0.224956242364965        0.003146020935952        0.002517245944669       -0.187640370854505
        0.227375126691470        0.003404262250553        0.002723873529998       -0.200840013996741
        0.229794011017975        0.003658318142694        0.002927153696471       -0.213511219714584
        0.232212895344480        0.003909527568565        0.003128154792302       -0.225747811171015
        0.234631779670985        0.004154868407884        0.003324461752620       -0.237390851146694
        0.237050663997490        0.004394226468212        0.003515980123033       -0.248452103119166
        0.239469548323995        0.004626011051884        0.003701440246980       -0.258860586710793
        0.241888432650500        0.004848595012981        0.003879537036586       -0.268545868106742
        0.244307316977005        0.005061909037302        0.004050218202883       -0.277526135403509
        0.246726201303510        0.005262780054414        0.004210941665220       -0.285650055629077
        0.249145085630015        0.005452724686537        0.004362924131399       -0.293024680043362
        0.251563969956520        0.005627019500241        0.004502382998435       -0.299420490199506
        0.253982854283025        0.005788804000344        0.004631833511613       -0.305031583202367
        0.256401738609530        0.005931829674594        0.004746272796968       -0.309554339815356
        0.258820622936035        0.006060866534271        0.004849520717919       -0.313266604483418
        0.261239507262540        0.006168196634209        0.004935398672124       -0.315796044532646
        0.263658391589045        0.006260197604867        0.005009012811445       -0.317499527979017
        0.266077275915550        0.006327768130339        0.005063077681741       -0.317942607548999
        0.268496160242055        0.006378839433665        0.005103942481492       -0.317555105662435
        0.270915044568560        0.006403042753370        0.005123307671893       -0.315848158080349
        0.273333928895065        0.006409777696348        0.005128697310447       -0.313317229394193
        0.275752813221570        0.006387552670828        0.005110913492377       -0.309427702372007
        0.278171697548075        0.006347119834546        0.005078562447610       -0.304732251525685
        0.280590581874580        0.006276036279061        0.005021685141719       -0.298659986840717
        0.283009466201085        0.006186261419990        0.004949853723217       -0.291811382240287
        0.285428350527590        0.006064597047713        0.004852504864456       -0.283589406130384
        0.287847234854095        0.005924036849786        0.004740038225155       -0.274632101332008
        0.290266119180600        0.005750844859505        0.004601460242214       -0.264326899309249
        0.292685003507105        0.005558850713143        0.004447839410142       -0.253338533575445
        0.295103887833610        0.005334016251301        0.004267940402879       -0.241049789973122
        0.297522772160115        0.005090786318528        0.004073323940077       -0.228140750541310
        0.299941656486620        0.004815070159153        0.003852712629540       -0.214000540902039
        0.302360540813125        0.004521688117370        0.003617967632026       -0.199312977800544
        0.304779425139630        0.004196756069002        0.003357976890151       -0.183484411163769
        0.307198309466135        0.003855215112329        0.003084698191873       -0.167190704824687
        0.309617193792640        0.003483651879168        0.002787396132457       -0.149866022922593
        0.312036078119145        0.003096862794619        0.002477912766904       -0.132166715156566
        0.314454962445650        0.002682169287043        0.002146100593825       -0.113564866198445
        0.316873846772155        0.002253951708907        0.001803468795908       -0.094686075983742
        0.319292731098660        0.001800525110087        0.001440664853867       -0.075049791722287
        0.321711615425165        0.001335581382162        0.001068647145726       -0.055240148308828
        0.324130499751670        0.000848677623643        0.000679056895764       -0.034832563999282
        0.326549384078175        0.000352549055347        0.000282087085316       -0.014359700586257
        0.328968268404680       -0.000161772276058       -0.000129440977040        0.006539432184580
        0.331387152731185       -0.000682766599183       -0.000546306756336        0.027392770918044
        0.333806037057690       -0.001217714520358       -0.000974338917982        0.048491219164998
        0.336224921384195       -0.001756555830755       -0.001405484693282        0.069431393507897
        0.338643805710700       -0.002304696606037       -0.001844072950544        0.090428858152026
        0.341062690037205       -0.002853760538924       -0.002283398190394        0.111155804227761
        0.343481574363710       -0.003407121561159       -0.002726163367994        0.131748541911341
        0.345900458690215       -0.003958286958024       -0.003167170039972        0.151960421595776
        0.348319343016720       -0.004508474377922       -0.003607395910557        0.171845994516641
        0.350738227343225       -0.005053245208323       -0.004043286035235        0.191243945150450
        0.353157111669730       -0.005591573512009       -0.004474022999146        0.210126017585251
        0.355575995996235       -0.006121212015805       -0.004897805181830        0.228418920038264
        0.357994880322740       -0.006638843476372       -0.005311981847460        0.246012019171344
        0.360413764649245       -0.007144512370016       -0.005716585062332        0.262921202390485
        0.362832648975750       -0.007632604065544       -0.006107125880747        0.278955361685163
        0.365251533302255       -0.008105515438437       -0.006485518607897        0.294219163010309
        0.367670417628760       -0.008555371338291       -0.006845465562807        0.308444368483739
        0.370089301955265       -0.008986939690040       -0.007190778238509        0.321822471584009
        0.372508186281770       -0.009390165164250       -0.007513414475080        0.334012834796730
        0.374927070608275       -0.009772161901840       -0.007819063110185        0.345290310888230
        0.377345954934780       -0.010120817905512       -0.008098036303845        0.355247897061066
        0.379764839261285       -0.010445524531399       -0.008357845054736        0.364238879956009
        0.382183723587790       -0.010732278657730       -0.008587288274456        0.371797125229382
        0.384602607914295       -0.010992635836292       -0.008795608716162        0.378348056604261
        0.387021492240800       -0.011210907418679       -0.008970256526200        0.383374714939909
        0.389440376567305       -0.011400657110355       -0.009122081378767        0.387367102898050
        0.391859260893810       -0.011544753587224       -0.009237378949376        0.389766670403796
        0.394278145220315       -0.011658571488378       -0.009328448047565        0.391119311874672
        0.396697029546820       -0.011723813325083       -0.009380651109765        0.390834884347191
        0.399115913873325       -0.011757428948523       -0.009407547483682        0.389505510058900
        0.401534798199830       -0.011740260540198       -0.009393811066840        0.386520038236239
        0.403953682526335       -0.011690562417662       -0.009354045118193        0.382506347870012
        0.406372566852840       -0.011588646576047       -0.009272499152479        0.376843264210817
        0.408791451179345       -0.011453770260262       -0.009164579068246        0.370183328837834
        0.411210335505850       -0.011266064116126       -0.009014389116979        0.361906529525865
        0.413629219832355       -0.011045460905799       -0.008837875858878        0.352678548454289
        0.416048104158860       -0.010772271335374       -0.008619287467205        0.341891724665296
        0.418466988485365       -0.010466755939662       -0.008374832909962        0.330213134274951
        0.420885872811870       -0.010109772945466       -0.008089198313978        0.317058457405045
        0.423304757138375       -0.009721548641579       -0.007778565375090        0.303084400270234
        0.425723641464880       -0.009283855480785       -0.007428351605753        0.287740576644510
        0.428142525791385       -0.008816515694287       -0.007054415510253        0.271661750062441
        0.430561410117890       -0.008302574945331       -0.006643193244542        0.254341471426046
        0.432980294444395       -0.007761080590866       -0.006209923394826        0.236381385176297
        0.435399178770900       -0.007176695773967       -0.005742336246652        0.217328211805733
        0.437818063097405       -0.006567328126866       -0.005254758513679        0.197739895349021
        0.440236947423910       -0.005919580938414       -0.004736472812524        0.177224618690925
        0.442655831750415       -0.005249870256462       -0.004200612423844        0.156286827855887
        0.445074716076920       -0.004547033931908       -0.003638247892919        0.134603368990382
        0.447493600403425       -0.003825664502619       -0.003061053457847        0.112616351287011
        0.449912484729930       -0.003077094278574       -0.002462095568511        0.090077260023888
        0.452331369056435       -0.002313787021549       -0.001851345144271        0.067358145871173
        0.454750253382940       -0.001529789116264       -0.001224040282224        0.044289772741911
        0.457169137709445       -0.000735163313774       -0.000588230739766        0.021167666937257
        0.459588022035950        0.000073155722839        0.000058534335748       -0.002094913408895
        0.462006906362455        0.000887739569730        0.000710313048139       -0.025284059862738
        0.464425790688960        0.001708640878292        0.001367145645228       -0.048402290442022
        0.466844675015465        0.002531254674353        0.002025349425247       -0.071320943618993
        0.469263559341970        0.003352549848336        0.002682497154300       -0.093958105190314
        0.471682443668475        0.004170885255333        0.003337277652112       -0.116272459145727
