#             time (fs)      |   total net charge (e)  |   charge (atom_1) (e)   |   charge (atom_2) (e)   |        ...        |   charge (atom_N) (e)   |
          0.000000000000000       -0.000000000000000       -0.000000000000000        0.000000000000000
          0.120944216325250        0.000000143659552       -0.231108991608359        0.231109135267911
          0.241888432650500        0.000000274793306        0.370726193755016       -0.370725918961710
          0.362832648975750        0.000000242608032       -0.388762035812506        0.388762278420538
          0.483776865301000        0.000000069310014        0.308418499129041       -0.308418429819027
          0.604721081626250       -0.000000003475761       -0.180317870275821        0.180317866800060
          0.725665297951500        0.000000107071596        0.063131968174720       -0.063131861103125
          0.846609514276750        0.000000275042640       -0.010055187484083        0.010055462526722
          0.967553730602000        0.000000376971661        0.044445584045698       -0.044445207074037
          1.088497946927250        0.000000351987066       -0.143300671902178        0.143301023889244
          1.209442163252500        0.000000282229996        0.253665414625584       -0.253665132395588
          1.330386379577750        0.000000185722529       -0.320126258605310        0.320126444327840
          1.451330595903000       -0.000000177568875        0.297175868829343       -0.297176046398219
          1.572274812228250       -0.000000936019053       -0.162465613109920        0.162464677090868
          1.693219028553500       -0.000001933470260       -0.060312864413523        0.060310930943263
          1.814163244878750       -0.000003024864063        0.298975377810722       -0.298978402674785
          1.935107461204000       -0.000004216455470       -0.463277376083777        0.463273159628307
          2.056051677529250       -0.000005531514522        0.483838041224680       -0.483843572739202
          2.176995893854500       -0.000006875738515       -0.336646499076297        0.336639623337782
          2.297940110179750       -0.000008173018545        0.053922797093227       -0.053930970111771
          2.418884326505000       -0.000009502542124        0.272928508915830       -0.272938011457954
          2.539828542830250       -0.000010840117366       -0.507817662783617        0.507806822666251
          2.660772759155500       -0.000011844882335        0.517440835700763       -0.517452680583098
          2.781716975480750       -0.000012240267165       -0.247051747291737        0.247039507024572
          2.902661191806000       -0.000011964037954       -0.208855655967358        0.208843691929403
          3.023605408131250       -0.000010757753033        0.593706130934134       -0.593716888687168
          3.144549624456500       -0.000009133657455       -0.588638925032179        0.588629791374724
          3.265493840781750       -0.000008944987292        0.046128628310933       -0.046137573298225
          3.386438057107000       -0.000008213012668        0.735394454404346       -0.735402667417014
          3.507382273432250       -0.000003189688050       -0.971423630728233        0.971420441040182
          3.628326489757500       -0.000006533365366        0.098225220341444       -0.098231753706810
          3.749270706082750       -0.000009030079580        1.024359924716361       -1.024368954795940
          3.870214922408000        0.000003274785833       -0.603226220772737        0.603229495558570
          3.991159138733250       -0.000003037671701       -0.779215650983999        0.779212613312299
          4.112103355058500        0.000012288631335        0.692790311060586       -0.692778022429251
          4.233047571383750        0.000013678054603        0.622360154050065       -0.622346475995462
          4.353991787709000        0.000020437269039       -0.577227550473493        0.577247987742533
          4.474936004034250        0.000012663016231       -0.802691975646850        0.802704638663081
          4.595880220359500        0.000012128648307        0.315903766060607       -0.315891637412300
          4.716824436684750       -0.000004807575599        0.941955642872240       -0.941960450447839
          4.837768653010000       -0.000005045835489        0.227109119359887       -0.227114165195375
          4.958712869335250        0.000001922092122       -0.649557853519633        0.649559775611755
          5.079657085660500        0.000008128940176       -0.787370278438071        0.787378407378247
          5.200601301985750        0.000021033433833       -0.038517012031331        0.038538045465164
          5.321545518311000        0.000030308417604        0.702017161669171       -0.701986853251567
          5.442489734636251        0.000025233808671        0.725217810714679       -0.725192576906009
          5.563433950961501        0.000018836070324        0.169635505774923       -0.169616669704599
          5.684378167286750        0.000014338339378       -0.500191453858079        0.500205792197457
          5.805322383612000       -0.000005790258913       -0.781741454819463        0.781735664560550
          5.926266599937250       -0.000002886333883       -0.424653078127598        0.424650191793715
          6.047210816262500        0.000009924992617        0.116253327407841       -0.116243402415224
          6.168155032587750        0.000030330265941        0.606747468373721       -0.606717138107779
          6.289099248913001        0.000039877451924        0.660481507779344       -0.660441630327420
          6.410043465238251        0.000046974743270        0.320064811521780       -0.320017836778510
          6.530987681563500        0.000039126044294       -0.108764708095643        0.108803834139937
          6.651931897888750        0.000017704770517       -0.495581054948547        0.495598759719064
          6.772876114214000       -0.000001705014410       -0.585769089826163        0.585767384811753
          6.893820330539250       -0.000001576010324       -0.416724734146293        0.416723158135969
          7.014764546864500       -0.000001475313681       -0.104603027928586        0.104601552614905
          7.135708763189751       -0.000000302726665        0.201437127525379       -0.201437430252044
          7.256652979515001        0.000009062810247        0.446197145433694       -0.446188082623448
          7.377597195840250        0.000013856256880        0.580841981109730       -0.580828124852850
          7.498541412165500        0.000009653126456        0.428583985096049       -0.428574331969593
          7.619485628490750        0.000010483471646        0.197284036710733       -0.197273553239087
          7.740429844816000        0.000014175284957       -0.022365247141539        0.022379422426496
          7.861374061141250        0.000019600275745       -0.192355880429048        0.192375480704793
          7.982318277466501        0.000025213300322       -0.369819300781811        0.369844514082134
          8.103262493791750        0.000031032474414       -0.495280133224445        0.495311165698858
          8.224206710117000        0.000029894711309       -0.475266989440476        0.475296884151785
          8.345150926442249        0.000027123443345       -0.332542264315131        0.332569387758476
          8.466095142767500        0.000021545456566       -0.193480011058901        0.193501556515467
          8.587039359092751        0.000018787561307       -0.124223718909614        0.124242506470922
          8.707983575418000        0.000015442747443       -0.061166037420279        0.061181480167723
          8.828927791743251        0.000012873556750       -0.004016186546591        0.004029060103341
          8.949872008068500        0.000012416941639        0.004876544987696       -0.004864128046057
          9.070816224393750        0.000009524803777        0.064803349244176       -0.064793824440399
          9.191760440718999        0.000011100074354        0.094016211995858       -0.094005111921505
          9.312704657044250        0.000010197911372        0.144398650237293       -0.144388452325921
          9.433648873369501        0.000008549392550        0.213639604284039       -0.213631054891489
          9.554593089694750        0.000012981430992        0.273815683978907       -0.273802702547915
          9.675537306020001        0.000008781012902        0.307846802322487       -0.307838021309584
          9.796481522345250        0.000005977491213        0.326029720325623       -0.326023742834409
          9.917425738670500        0.000007943872006        0.304768833189115       -0.304760889317109
         10.038369954995749        0.000011066718188        0.261011613631212       -0.261000546913024
         10.159314171321000        0.000009383734126        0.221868769838450       -0.221859386104325
         10.280258387646251        0.000009367500681        0.210578330805080       -0.210568963304399
         10.401202603971500        0.000009405061504        0.203579988534438       -0.203570583472934
         10.522146820296751        0.000007939605821        0.211276138899695       -0.211268199293874
         10.643091036622000        0.000006311463566        0.236119975642336       -0.236113664178770
         10.764035252947250        0.000007339221068        0.257408085315715       -0.257400746094647
         10.884979469272501        0.000006506603438        0.269331943072837       -0.269325436469399
         11.005923685597750        0.000005799686712        0.274996008060580       -0.274990208373869
         11.126867901923001        0.000006453378295        0.270621731934302       -0.270615278556007
         11.247812118248250        0.000007696335761        0.255951409277262       -0.255943712941502
         11.368756334573501        0.000007278201749        0.242986993661687       -0.242979715459938
         11.489700550898750        0.000007206550668        0.239079156292616       -0.239071949741948
         11.610644767224001        0.000007378669032        0.239017196834790       -0.239009818165758
         11.731588983549251        0.000007097408069        0.242360436359264       -0.242353338951195
         11.852533199874500        0.000006391296340        0.250279541976274       -0.250273150679934
         11.973477416199751        0.000006622955288        0.257286995161613       -0.257280372206325
         12.094421632525000        0.000006774016999        0.258506584659401       -0.258499810642402
         12.215365848850251        0.000006628847078        0.256842070577148       -0.256835441730070
         12.336310065175500        0.000006609956766        0.254117109544428       -0.254110499587662
         12.457254281500751        0.000007042948907        0.250583082983254       -0.250576040034346
         12.578198497826001        0.000007017007827        0.247306252726749       -0.247299235718922
         12.699142714151250        0.000006811664973        0.247656467513087       -0.247649655848114
         12.820086930476501        0.000006816882470        0.249554857256481       -0.249548040374011
         12.941031146801750        0.000006906728091        0.251417900488933       -0.251410993760842
         13.061975363127001        0.000006672325267        0.252611178655366       -0.252604506330099
         13.182919579452250        0.000006611584021        0.253783457765488       -0.253776846181467
         13.303863795777501        0.000006793501369        0.253108416255886       -0.253101622754517
         13.424808012102751        0.000006864929552        0.251769423900136       -0.251762558970584
         13.545752228428000        0.000006760338368        0.250655348627883       -0.250648588289515
         13.666696444753251        0.000006832007065        0.250570910112319       -0.250564078105253
         13.787640661078500        0.000006918410648        0.250439245624757       -0.250432327214109
         13.908584877403751        0.000006806167782        0.251012926649685       -0.251006120481903
         14.029529093729000        0.000006702274396        0.251692937493081       -0.251686235218685
         14.150473310054251        0.000006768700752        0.252245241378819       -0.252238472678067
         14.271417526379501        0.000006805376516        0.251985037762873       -0.251978232386358
         14.392361742704750        0.000006736428053        0.251746506922326       -0.251739770494273
         14.513305959030001        0.000006766811125        0.251369253105587       -0.251362486294462
         14.634250175355250        0.000006858936117        0.251157352040524       -0.251150493104408
         14.755194391680501        0.000006855575725        0.250961712515496       -0.250954856939771
         14.876138608005750        0.000006768751776        0.251254445835979       -0.251247677084203
         14.997082824331001        0.000006786796370        0.251548245047497       -0.251541458251127
         15.118027040656251        0.000006809792002        0.251751137130170       -0.251744327338168
         15.238971256981500        0.000006768737928        0.251693242667597       -0.251686473929669
         15.359915473306751        0.000006732717514        0.251671792283178       -0.251665059565664
         15.480859689632000        0.000006800947453        0.251464124248885       -0.251457323301433
         15.601803905957251        0.000006822994972        0.251259288078003       -0.251252465083031
         15.722748122282500        0.000006796135612        0.251199754695212       -0.251192958559600
         15.843692338607751        0.000006787733213        0.251370235676086       -0.251363447942873
         15.964636554933001        0.000006815051002        0.251504450057631       -0.251497635006629
         16.085580771258250        0.000006795979763        0.251585086350697       -0.251578290370934
         16.206524987583499        0.000006775465450        0.251637290351919       -0.251630514886469
         16.327469203908752        0.000006780683843        0.251593386539268       -0.251586605855425
         16.448413420234001        0.000006795197558        0.251452855462677       -0.251446060265119
         16.569357636559250        0.000006792682067        0.251316466892751       -0.251309674210684
         16.690301852884499        0.000006790877367        0.251342590459592       -0.251335799582225
         16.811246069209751        0.000006790943170        0.251408194284915       -0.251401403341745
         16.932190285535000        0.000006790415298        0.251489650137662       -0.251482859722364
         17.053134501860249        0.000006798570008        0.251524703724457       -0.251517905154449
         17.174078718185502        0.000006804225684        0.251581708915935       -0.251574904690251
         17.295022934510751        0.000006786506496        0.251521350618755       -0.251514564112258
         17.415967150836000        0.000006778893857        0.251448155249850       -0.251441376355993
         17.536911367161249        0.000006810088885        0.251397827953428       -0.251391017864543
         17.657855583486501        0.000006788277914        0.251427022581098       -0.251420234303184
         17.778799799811750        0.000006700232592        0.251438264330787       -0.251431564098195
         17.899744016136999        0.000006773577254        0.251462512940115       -0.251455739362861
         18.020688232462252        0.000006879261861        0.251474350107238       -0.251467470845377
         18.141632448787501        0.000006871605864        0.251479799315981       -0.251472927710118
         18.262576665112750        0.000006790938256        0.251470123800189       -0.251463332861934
         18.383520881437999        0.000006813189860        0.251464899889046       -0.251458086699186
         18.504465097763251        0.000006824305774        0.251464012499154       -0.251457188193380
         18.625409314088500        0.000006806945663        0.251464491767003       -0.251457684821340
         18.746353530413749        0.000006801020065        0.251464529732042       -0.251457728711976
         18.867297746739002        0.000006801463688        0.251464530811318       -0.251457729347630
         18.988241963064251        0.000006801463688        0.251464530811318       -0.251457729347630
         19.109186179389500        0.000006801463688        0.251464530811318       -0.251457729347630
         19.230130395714749        0.000006801463688        0.251464530811318       -0.251457729347630
         19.351074612040001        0.000006801463688        0.251464530811318       -0.251457729347630
         19.472018828365250        0.000006801463688        0.251464530811318       -0.251457729347630
         19.592963044690499        0.000006801463688        0.251464530811318       -0.251457729347630
         19.713907261015752        0.000006801463688        0.251464530811318       -0.251457729347630
         19.834851477341001        0.000006801463688        0.251464530811318       -0.251457729347630
         19.955795693666250        0.000006801463688        0.251464530811318       -0.251457729347630
         20.076739909991499        0.000006801463688        0.251464530811318       -0.251457729347630
         20.197684126316751        0.000006801463688        0.251464530811318       -0.251457729347630
         20.318628342642000        0.000006801463688        0.251464530811318       -0.251457729347630
         20.439572558967249        0.000006801463688        0.251464530811318       -0.251457729347630
         20.560516775292502        0.000006801463688        0.251464530811318       -0.251457729347630
         20.681460991617751        0.000006801463688        0.251464530811318       -0.251457729347630
         20.802405207943000        0.000006801463688        0.251464530811318       -0.251457729347630
         20.923349424268253        0.000006801463688        0.251464530811318       -0.251457729347630
         21.044293640593501        0.000006801463688        0.251464530811318       -0.251457729347630
         21.165237856918750        0.000006801463688        0.251464530811318       -0.251457729347630
         21.286182073243999        0.000006801463688        0.251464530811318       -0.251457729347630
         21.407126289569252        0.000006801463688        0.251464530811318       -0.251457729347630
         21.528070505894501        0.000006801463688        0.251464530811318       -0.251457729347630
         21.649014722219750        0.000006801463688        0.251464530811318       -0.251457729347630
         21.769958938545003        0.000006801463688        0.251464530811318       -0.251457729347630
         21.890903154870252        0.000006801463688        0.251464530811318       -0.251457729347630
         22.011847371195501        0.000006801463688        0.251464530811318       -0.251457729347630
         22.132791587520749        0.000006801463688        0.251464530811318       -0.251457729347630
         22.253735803846002        0.000006801463688        0.251464530811318       -0.251457729347630
         22.374680020171251        0.000006801463688        0.251464530811318       -0.251457729347630
         22.495624236496500        0.000006801463688        0.251464530811318       -0.251457729347630
         22.616568452821753        0.000006801463688        0.251464530811318       -0.251457729347630
         22.737512669147002        0.000006801463688        0.251464530811318       -0.251457729347630
         22.858456885472251        0.000006801463688        0.251464530811318       -0.251457729347630
         22.979401101797500        0.000006801463688        0.251464530811318       -0.251457729347630
         23.100345318122752        0.000006801463688        0.251464530811318       -0.251457729347630
