#           time (fs)    |     mu_x (e.angstrom)   |     mu_y (e.angstrom)   |     mu_z (e.angstrom)   |
        0.000000000000000       -0.000000000000000       -0.000000000000000        0.000000000000000
        0.002418884326505        0.000000000159110       -0.000000000110010       -0.000003236853455
        0.004837768653010        0.000000000636097       -0.000000000439583       -0.000006462335321
        0.007256652979515        0.000000001421956       -0.000000000982826       -0.000009636418341
        0.009675537306020       -0.000000000182657        0.000000000126228        0.000000928087399
        0.012094421632525       -0.000000002844466        0.000000001965433        0.000011559389395
        0.014513305959030       -0.000000014573038        0.000000010070894        0.000049376977204
        0.016932190285535       -0.000000030018697        0.000000020744440        0.000087187610491
        0.019351074612040       -0.000000064946552        0.000000044882188        0.000165084474557
        0.021769958938545       -0.000000107431851        0.000000074241727        0.000242761585345
        0.024188843265050       -0.000000183193729        0.000000126598493        0.000372619177137
        0.026607727591555       -0.000000271372800        0.000000187535216        0.000501858839607
        0.029026611918060       -0.000000409519480        0.000000283003978        0.000694324383282
        0.031445496244565       -0.000000565758075        0.000000390974064        0.000885546790137
        0.033864380571070       -0.000000790959828        0.000000546603617        0.001149767494270
        0.036283264897575       -0.000001040500883        0.000000719051626        0.001411856855741
        0.038702149224080       -0.000001379618234        0.000000953404475        0.001755242734086
        0.041121033550585       -0.000001749621161        0.000001209099526        0.002095316687781
        0.043539917877090       -0.000002230666769        0.000001541534599        0.002523336394501
        0.045958802203595       -0.000002749145149        0.000001899836381        0.002946549204331
        0.048377686530100       -0.000003400163502        0.000002349734991        0.003462562707690
        0.050796570856605       -0.000004094848498        0.000002829808517        0.003971945934133
        0.053215455183110       -0.000004942742314        0.000003415763579        0.004577077206767
        0.055634339509615       -0.000005839901237        0.000004035763010        0.005173420872550
        0.058053223836120       -0.000006909235127        0.000004774752597        0.005866473076597
        0.060472108162625       -0.000008032475991        0.000005550995451        0.006548249642339
        0.062890992489130       -0.000009344288861        0.000006457562444        0.007325664545603
        0.065309876815635       -0.000010713382534        0.000007403715996        0.008088997261083
        0.067728761142140       -0.000012284040457        0.000008489175712        0.008944859848649
        0.070147645468645       -0.000013913792069        0.000009615477424        0.009783536269990
        0.072566529795150       -0.000015753912908        0.000010887174802        0.010709624727686
        0.074985414121655       -0.000017653113499        0.000012199708155        0.011615155402408
        0.077404298448160       -0.000019766593404        0.000013660345239        0.012601035858016
        0.079823182774665       -0.000021937081487        0.000015160391382        0.013562757392489
        0.082242067101170       -0.000024320251545        0.000016807444591        0.014595922021580
        0.084660951427675       -0.000026756112174        0.000018490928840        0.015601142972869
        0.087079835754180       -0.000029397051003        0.000020316173767        0.016667189322407
        0.089498720080685       -0.000032083977334        0.000022173224117        0.017701376612387
        0.091917604407190       -0.000034962002319        0.000024162383501        0.018784225279875
        0.094336488733695       -0.000037876841357        0.000026177016128        0.019831228126855
        0.096755373060200       -0.000040962197597        0.000028309544123        0.020913375268354
        0.099174257386705       -0.000044072698084        0.000030459488232        0.021955682982217
        0.101593141713210       -0.000047326460051        0.000032708501340        0.023018483520006
        0.104012026039715       -0.000050591236239        0.000034965172887        0.024037512921905
        0.106430910366220       -0.000053965432638        0.000037297534828        0.025061489791857
        0.108849794692725       -0.000057334153153        0.000039626165499        0.026037897508078
        0.111268679019230       -0.000060772120784        0.000042002730095        0.027003071836102
        0.113687563345735       -0.000064185926971        0.000044362654677        0.027917086285608
        0.116106447672240       -0.000067622894424        0.000046738667424        0.028803323018419
        0.118525331998745       -0.000071015047624        0.000049083769298        0.029635090570881
        0.120944216325250       -0.000074378944658        0.000051409424895        0.030422453813661
        0.123363100651755       -0.000077675696867        0.000053688735960        0.031152393343932
        0.125781984978260       -0.000080888180338        0.000055909885649        0.031821505479416
        0.128200869304765       -0.000084009857752        0.000058068333605        0.032430665388125
        0.130619753631270       -0.000086987540126        0.000060127332823        0.032963063969817
        0.133038637957775       -0.000089849824302        0.000062106625400        0.033433475679396
        0.135457522284280       -0.000092505686153        0.000063943309067        0.033811962106102
        0.137876406610785       -0.000095021072972        0.000065682941681        0.034126984076823
        0.140295290937290       -0.000097266036588        0.000067235711434        0.034335958165188
        0.142714175263795       -0.000099345449035        0.000068674081790        0.034480604605293
        0.145133059590300       -0.000101090086349        0.000069881086750        0.034506379379037
        0.147551943916805       -0.000102644613346        0.000070956697291        0.034467628043991
        0.149970828243310       -0.000103800957995        0.000071757087535        0.034298719349420
        0.152389712569815       -0.000104743688255        0.000072409814281        0.034065793133981
        0.154808596896320       -0.000105227118695        0.000072745044125        0.033693179066298
        0.157227481222825       -0.000105475035850        0.000072917448536        0.033257796484571
        0.159646365549330       -0.000105206194166        0.000072732605105        0.032675142062985
        0.162065249875835       -0.000104682097298        0.000072371264046        0.032031732180182
        0.164484134202340       -0.000103588806714        0.000071616395402        0.031235575234982
        0.166903018528845       -0.000102223218964        0.000070673223229        0.030381453153293
        0.169321902855350       -0.000100242362063        0.000069304639594        0.029371347977553
        0.171740787181855       -0.000097975389176        0.000067738175792        0.028306847579804
        0.174159671508360       -0.000095054708569        0.000065719697174        0.027085463543553
        0.176578555834865       -0.000091837809167        0.000063496332859        0.025814024853364
        0.178997440161370       -0.000087937592747        0.000060800456675        0.024387197869674
        0.181416324487875       -0.000083735222678        0.000057895573735        0.022915407086142
        0.183835208814380       -0.000078829836734        0.000054504536790        0.021292142546459
        0.186254093140885       -0.000073620931201        0.000050903534310        0.019629723544579
        0.188672977467390       -0.000067700166459        0.000046810244804        0.017822150093701
        0.191091861793895       -0.000061479425594        0.000042509428908        0.015981906937611
        0.193510746120400       -0.000054549623754        0.000037718245918        0.014005181225595
        0.195929630446905       -0.000047328569978        0.000032725561039        0.012002892008570
        0.198348514773410       -0.000039413501448        0.000027252901163        0.009875055325323
        0.200767399099915       -0.000031221280299        0.000021588483134        0.007729318416054
        0.203186283426420       -0.000022362747566        0.000015463236678        0.005471106872191
        0.205605167752925       -0.000013246647524        0.000009159770849        0.003203141398824
        0.208024052079430       -0.000003504792908        0.000002423512981        0.000837752051171
        0.210442936405935        0.000006469535747       -0.000004473616307       -0.001528844819447
        0.212861820732440        0.000017016234428       -0.000011766630597       -0.003976028799689
        0.215280705058945        0.000027764876800       -0.000019199409340       -0.006415564542141
        0.217699589385450        0.000039019933895       -0.000026982473982       -0.008917285907731
        0.220118473711955        0.000050441133432       -0.000034880553075       -0.011402291393642
        0.222537358038460        0.000062290712159       -0.000043074966978       -0.013929763719994
        0.224956242364965        0.000074265623482       -0.000051356184523       -0.016431343586739
        0.227375126691470        0.000086579521560       -0.000059871934574       -0.018954624157047
        0.229794011017975        0.000098973291392       -0.000068443064401       -0.021442833818138
        0.232212895344480        0.000111606249566       -0.000077179730915       -0.023931219169061
        0.234631779670985        0.000124269418020       -0.000085937451692       -0.026375463063356
        0.237050663997490        0.000137062739456       -0.000094785327791       -0.028797901496495
        0.239469548323995        0.000149832947971       -0.000103617403057       -0.031167346826188
        0.241888432650500        0.000162616410613       -0.000112458815443       -0.033492861910254
        0.244307316977005        0.000175320396951       -0.000121245470932       -0.035756861859710
        0.246726201303510        0.000187914435224       -0.000129956285704       -0.037954980760344
        0.249145085630015        0.000200370290320       -0.000138571766573       -0.040083501022715
        0.251563969956520        0.000212588417173       -0.000147023060139       -0.042124681403701
        0.253982854283025        0.000224608073340       -0.000155337347163       -0.044088723771686
        0.256401738609530        0.000236259508655       -0.000163397218982       -0.045944773013321
        0.258820622936035        0.000247651423804       -0.000171277879568       -0.047716789814670
        0.261239507262540        0.000258543890768       -0.000178813380500       -0.049361270391478
        0.263658391589045        0.000269115889039       -0.000186127527529       -0.050915563667574
        0.266077275915550        0.000279058536229       -0.000193006675021       -0.052324178715915
        0.268496160242055        0.000288620761792       -0.000199623004061       -0.053637278250367
        0.270915044568560        0.000297427165639       -0.000205716853297       -0.054788231633173
        0.273333928895065        0.000305795103525       -0.000211507726785       -0.055839246232816
        0.275752813221570        0.000313286303453       -0.000216692465311       -0.056713571768692
        0.278171697548075        0.000320283819148       -0.000221536010817       -0.057484508576695
        0.280590581874580        0.000326291336188       -0.000225695043065       -0.058066363538029
        0.283009466201085        0.000331753684460       -0.000229477231802       -0.058542410611680
        0.285428350527590        0.000336122473427       -0.000232503219414       -0.058819329104273
        0.287847234854095        0.000339899226398       -0.000235119890775       -0.058989097011614
        0.290266119180600        0.000342490511964       -0.000236916714611       -0.058952199418793
        0.292685003507105        0.000344448356909       -0.000238275512677       -0.058807918189990
        0.295103887833610        0.000345142304913       -0.000238760123005       -0.058452073489023
        0.297522772160115        0.000345167663525       -0.000238782311714       -0.057989741893889
        0.299941656486620        0.000343865840795       -0.000237886434214       -0.057313680322511
        0.302360540813125        0.000341867263803       -0.000236508559158       -0.056533165121409
        0.304779425139630        0.000338494842428       -0.000234180226075       -0.055539539376860
        0.307198309466135        0.000334405136331       -0.000231355592768       -0.054444622903378
        0.309617193792640        0.000328912801785       -0.000227560470746       -0.053140016787365
        0.312036078119145        0.000322690848117       -0.000223260411541       -0.051738391954457
        0.314454962445650        0.000315056374743       -0.000217982900456       -0.050133276122668
        0.316873846772155        0.000306688606555       -0.000212197805169       -0.048436488689908
        0.319292731098660        0.000296918068669       -0.000205441885386       -0.046545123914335
        0.321711615425165        0.000286419573827       -0.000198181973994       -0.044568462601691
        0.324130499751670        0.000274548165945       -0.000189971783148       -0.042408751697115
        0.326549384078175        0.000261963392195       -0.000181267602616       -0.040171087469593
        0.328968268404680        0.000248055837629       -0.000171647726915       -0.037764377761519
        0.331387152731185        0.000233458880224       -0.000161550358297       -0.035287954328375
        0.333806037057690        0.000217609413317       -0.000150585827654       -0.032658793237966
        0.336224921384195        0.000201103872133       -0.000139166793920       -0.029968971499592
        0.338643805710700        0.000183435785778       -0.000126942774669       -0.027144818481650
        0.341062690037205        0.000165154185269       -0.000114293644291       -0.024269778306661
        0.343481574363710        0.000145818941850       -0.000100914827930       -0.021280676989887
        0.345900458690215        0.000125921713707       -0.000087146513928       -0.018251080304976
        0.348319343016720        0.000105097624223       -0.000072736205054       -0.015129295240681
        0.350738227343225        0.000083771659292       -0.000057977963996       -0.011977914957736
        0.353157111669730        0.000061662142017       -0.000042676875339       -0.008757537875899
        0.355575995996235        0.000039118924609       -0.000027075015512       -0.005518857656925
        0.357994880322740        0.000015950361185       -0.000011039782687       -0.002235388549943
        0.360413764649245       -0.000007576294565        0.000005243904656        0.001054821186321
        0.362832648975750       -0.000031557081372        0.000021842471563        0.004364912487637
        0.365251533302255       -0.000055813667125        0.000038632539493        0.007670036588450
        0.367670417628760       -0.000080342283673        0.000055611446035        0.010969762419735
        0.370089301955265       -0.000105058572459        0.000072720855114        0.014252795079227
        0.372508186281770       -0.000129856236434        0.000089887128820        0.017505109424465
        0.374927070608275       -0.000154748560530        0.000107119519551        0.020729114194957
        0.377345954934780       -0.000179525553747        0.000124272603333        0.023897373452143
        0.379764839261285       -0.000204300341972        0.000141424747703        0.027025942989547
        0.382183723587790       -0.000228759687660        0.000158359047942        0.030074361825661
        0.384602607914295       -0.000253117214600        0.000175223446753        0.033072071191950
        0.387021492240800       -0.000276958528907        0.000191731000895        0.035966167379341
        0.389440376567305       -0.000300596824554        0.000208098590911        0.038799014831843
        0.391859260893810       -0.000323520288555        0.000223971817143        0.041506037130585
        0.394278145220315       -0.000346139153588        0.000239634749975        0.044141866519737
        0.396697029546820       -0.000367849549401        0.000254669239882        0.046631199925752
        0.399115913873325       -0.000389154618851        0.000269423692991        0.049040099096707
        0.401534798199830       -0.000409365371630        0.000283421006967        0.051283642109222
        0.403953682526335       -0.000429072168053        0.000297069986206        0.053438312053736
        0.406372566852840       -0.000447509334671        0.000309840410933        0.055410821022573
        0.408791451179345       -0.000465347251261        0.000322196503740        0.057286910950370
        0.411210335505850       -0.000481753396494        0.000333561731167        0.058966307037298
        0.413629219832355       -0.000497469550812        0.000344449769803        0.060542711024035
        0.416048104158860       -0.000511607452771        0.000354245457814        0.061910345845628
        0.418466988485365       -0.000524970352953        0.000363505052982        0.063169457260213
        0.420885872811870       -0.000536626481417        0.000371583229338        0.064210333864423
        0.423304757138375       -0.000547429448950        0.000379071136035        0.065138254373648
        0.425723641464880       -0.000556417163094        0.000385302409126        0.065841200829749
        0.428142525791385       -0.000564481459292        0.000390894688732        0.066427901414056
        0.430561410117890       -0.000570643875061        0.000395170231225        0.066785694956721
        0.432980294444395       -0.000575821482454        0.000398764176520        0.067025127038271
        0.435399178770900       -0.000579033964413        0.000400997451087        0.067034567391511
        0.437818063097405       -0.000581209979025        0.000402513244096        0.066924722864745
        0.440236947423910       -0.000581382216906        0.000402641443930        0.066586654070519
        0.442655831750415       -0.000580476813026        0.000402023520220        0.066129573726328
        0.445074716076920       -0.000577554449196        0.000400008701088        0.065448854505822
        0.447493600403425       -0.000573524384447        0.000397226798233        0.064650585043230
        0.449912484729930       -0.000567490165143        0.000393056683166        0.063636008416181
        0.452331369056435       -0.000560329800406        0.000388106555588        0.062506508930266
        0.454750253382940       -0.000551204230627        0.000381794997999        0.061170672499465
        0.457169137709445       -0.000540946046552        0.000374698785176        0.059723672011346
        0.459588022035950       -0.000528787535836        0.000366285881126        0.058082800976293
        0.462006906362455       -0.000515502135106        0.000357092121134        0.056335609221093
        0.464425790688960       -0.000500406629006        0.000346643966549        0.054409334807508
        0.466844675015465       -0.000484202221120        0.000335427252055        0.052382609110398
        0.469263559341970       -0.000466302320771        0.000323035345866        0.050193705682666
        0.471682443668475       -0.000447323693746        0.000309895624915        0.047911177323059
