#           time (fs)       | force (atom_1) (H/b)   |  force (atom_2) (H/b)  |           ...          |  force (atom_N) (H/b)  |
        0.000000000000000       -0.000000000000000       -0.000000000000000       -0.001977038000788       -0.000000000000000       -0.000000000000000        0.001977038000788
        0.120944216325250        0.000010587092315       -0.000015750499897       -0.001669663647398       -0.000010587092283        0.000015750499929        0.001669663647398
        0.241888432650500        0.000016427718414       -0.000023864782740       -0.001277832407662       -0.000016427718375        0.000023864782778        0.001277832407662
        0.362832648975750        0.000014512545469       -0.000023649766540       -0.000807286858253       -0.000014512545541        0.000023649766467        0.000807286858253
        0.483776865301000        0.000000972442815       -0.000015655575509       -0.000263958199733       -0.000000972442940        0.000015655575384        0.000263958199733
        0.604721081626250       -0.000012419083928        0.000014721274144        0.000344864763084        0.000012419083959       -0.000014721274113       -0.000344864763084
        0.725665297951500       -0.000054871851385        0.000040608108016        0.001011604814015        0.000054871851539       -0.000040608107862       -0.001011604814015
        0.846609514276750       -0.000086903058512        0.000103216917467        0.001727533113881        0.000086903058555       -0.000103216917423       -0.001727533113881
        0.967553730602000       -0.000150475505548        0.000161736589321        0.002483704839221        0.000150475505489       -0.000161736589380       -0.002483704839221
        1.088497946927250       -0.000218249010433        0.000244063482641        0.003270926844786        0.000218249010443       -0.000244063482631       -0.003270926844786
        1.209442163252500       -0.000290306698609        0.000350114526957        0.004080108904992        0.000290306698550       -0.000350114527016       -0.004080108904992
        1.330386379577750       -0.000400602705852        0.000445261939269        0.004901514527762        0.000400602705562       -0.000445261939558       -0.004901514527762
        1.451330595903000       -0.000483190118240        0.000594332930482        0.005726219977071        0.000483190118188       -0.000594332930534       -0.005726219977071
        1.572274812228250       -0.000620781178000        0.000712881058696        0.006544960986021        0.000620781178685       -0.000712881058012       -0.006544960986021
        1.693219028553500       -0.000732507351206        0.000879696560611        0.007349474503606        0.000732507351793       -0.000879696560024       -0.007349474503606
        1.814163244878750       -0.000866512563155        0.001043990651037        0.008131211407985        0.000866512562368       -0.001043990651824       -0.008131211407985
        1.935107461204000       -0.001026629178214        0.001199111888543        0.008882987036065        0.001026629176749       -0.001199111890008       -0.008882987036065
        2.056051677529250       -0.001145161296703        0.001409506135922        0.009597615925615        0.001145161296935       -0.001409506135689       -0.009597615925615
        2.176995893854500       -0.001330666436961        0.001562980288710        0.010268075885434        0.001330666439182       -0.001562980286488       -0.010268075885434
        2.297940110179750       -0.001458593232081        0.001780487651751        0.010888893533700        0.001458593233117       -0.001780487650715       -0.010888893533700
        2.418884326505000       -0.001633202540950        0.001954029315827        0.011455199174315        0.001633202538694       -0.001954029318082       -0.011455199174315
        2.539828542830250       -0.001789364298082        0.002144760049471        0.011962298077943        0.001789364295489       -0.002144760052064       -0.011962298077943
        2.660772759155500       -0.001919519433316        0.002356134072499        0.012405956285249        0.001919519434506       -0.002356134071308       -0.012405956285249
        2.781716975480750       -0.002114207304318        0.002493601286826        0.012782935581533        0.002114207308020       -0.002493601283123       -0.012782935581533
        2.902661191806000       -0.002208348990087        0.002718620020146        0.013091587235938        0.002208348990816       -0.002718620019417       -0.013091587235938
        3.023605408131250       -0.002380335577305        0.002848551673408        0.013328953806755        0.002380335573647       -0.002848551677066       -0.013328953806755
        3.144549624456500       -0.002494170492525        0.003015676257645        0.013493877792243        0.002494170489768       -0.003015676260402       -0.013493877792243
        3.265493840781750       -0.002600941697518        0.003165247804235        0.013585566729615        0.002600941699824       -0.003165247801928       -0.013585566729615
        3.386438057107000       -0.002733745551100        0.003260559568383        0.013603518394138        0.002733745555107       -0.003260559564377       -0.013603518394138
        3.507382273432250       -0.002772877303449        0.003417991529562        0.013548006753012        0.002772877303280       -0.003417991529730       -0.013548006753012
        3.628326489757500       -0.002906285409842        0.003446317923491        0.013419460785703        0.002906285405940       -0.003446317927393       -0.013419460785703
        3.749270706082750       -0.002914134986542        0.003563125024038        0.013220455937882        0.002914134984719       -0.003563125025861       -0.013220455937882
        3.870214922408000       -0.002970141492651        0.003591545974291        0.012951562494241        0.002970141495229       -0.003591545971712       -0.012951562494241
        3.991159138733250       -0.003009050761136        0.003594595529117        0.012615143024160        0.003009050763982       -0.003594595526271       -0.012615143024160
        4.112103355058500       -0.002961822086088        0.003639965008538        0.012215043037036        0.002961822085305       -0.003639965009321       -0.012215043037036
        4.233047571383750       -0.003003553204321        0.003550952763344        0.011754317544159        0.003003553201732       -0.003550952765932       -0.011754317544159
        4.353991787709000       -0.002898840838965        0.003562032883202        0.011236968228922        0.002898840838378       -0.003562032883788       -0.011236968228922
        4.474936004034250       -0.002885084744124        0.003434586932778        0.010666178955234        0.002885084745610       -0.003434586931292       -0.010666178955234
        4.595880220359500       -0.002784417045156        0.003347393185142        0.010048396666151        0.002784417046138       -0.003347393184160       -0.010048396666151
        4.716824436684750       -0.002657841264621        0.003239987923118        0.009388886082347        0.002657841264220       -0.003239987923519       -0.009388886082347
        4.837768653010000       -0.002590483413231        0.003027799558852        0.008692479388771        0.002590483412769       -0.003027799559313       -0.008692479388771
        4.958712869335250       -0.002371263422465        0.002924678047937        0.007966936725084        0.002371263422465       -0.002924678047938       -0.007966936725084
        5.079657085660500       -0.002282735720892        0.002649956427703        0.007218003265722        0.002282735720459       -0.002649956428135       -0.007218003265722
        5.200601301985750       -0.002053890867059        0.002478643627164        0.006453921750151        0.002053890866664       -0.002478643627559       -0.006453921750151
        5.321545518311000       -0.001871541281518        0.002227048682595        0.005680939206465        0.001871541282324       -0.002227048681788       -0.005680939206465
        5.442489734636251       -0.001698362733819        0.001938051521281        0.004908011512575        0.001698362735095       -0.001938051520004       -0.004908011512575
        5.563433950961501       -0.001413951209246        0.001737735440632        0.004143392079333        0.001413951208911       -0.001737735440967       -0.004143392079333
        5.684378167286750       -0.001273482279037        0.001375310997493        0.003392873378979        0.001273482277033       -0.001375310999496       -0.003392873378979
        5.805322383612000       -0.000967239655072        0.001168946601393        0.002666756984848        0.000967239654334       -0.001168946602132       -0.002666756984848
        5.926266599937250       -0.000787482367858        0.000832896125587        0.001971953763705        0.000787482369863       -0.000832896123582       -0.001971953763705
        6.047210816262500       -0.000552218679893        0.000557118645074        0.001316390409377        0.000552218681776       -0.000557118643191       -0.001316390409377
        6.168155032587750       -0.000288277750135        0.000322293489308        0.000706638812142        0.000288277749059       -0.000322293490385       -0.000706638812142
        6.289099248913001       -0.000155211504946       -0.000023050548004        0.000149210490562        0.000155211502298        0.000023050545356       -0.000149210490562
        6.410043465238251        0.000139958566758       -0.000175847754186       -0.000347886890986       -0.000139958567085        0.000175847753858        0.000347886890986
        6.530987681563500        0.000240959376048       -0.000487058772847       -0.000782650722073       -0.000240959373443        0.000487058775452        0.000782650722073
        6.651931897888750        0.000450757150997       -0.000643253371856       -0.001147963013582       -0.000450757149306        0.000643253373547        0.001147963013582
        6.772876114214000        0.000591862631539       -0.000814874385772       -0.001441103745388       -0.000591862633270        0.000814874384041        0.001441103745388
        6.893820330539250        0.000652316613202       -0.001007855774650       -0.001660645977878       -0.000652316615849        0.001007855772002        0.001660645977878
        7.014764546864500        0.000824772269989       -0.001021488706363       -0.001803557573499       -0.000824772269677        0.001021488706675        0.001803557573499
        7.135708763189751        0.000771428344252       -0.001189308580404       -0.001870846088102       -0.000771428341341        0.001189308583316        0.001870846088102
        7.256652979515001        0.000873913795253       -0.001122808711962       -0.001861163102421       -0.000873913794001        0.001122808713214        0.001861163102421
        7.377597195840250        0.000808595257336       -0.001145184298523       -0.001779319640900       -0.000808595259669        0.001145184296191        0.001779319640900
        7.498541412165500        0.000740235532038       -0.001086708404512       -0.001625835588520       -0.000740235534643        0.001086708401908        0.001625835588520
        7.619485628490750        0.000709822771961       -0.000904771201307       -0.001404257206036       -0.000709822770910        0.000904771202358        0.001404257206036
        7.740429844816000        0.000473446677864       -0.000846543100385       -0.001122127974011       -0.000473446674564        0.000846543103685        0.001122127974011
        7.861374061141250        0.000415579208963       -0.000524461647051       -0.000781198081596       -0.000415579208284        0.000524461647730        0.000781198081596
        7.982318277466501        0.000119823974224       -0.000360651565771       -0.000390373120617       -0.000119823977224        0.000360651562771        0.000390373120617
        8.103262493791750       -0.000081750595718       -0.000024610148918        0.000045393994835        0.000081750593285        0.000024610146485       -0.000045393994835
        8.224206710117000       -0.000333702808998        0.000333060958517        0.000517981516676        0.000333702810827       -0.000333060956688       -0.000517981516676
        8.345150926442249       -0.000715420526530        0.000627842292712        0.001020554890728        0.000715420529980       -0.000627842289262       -0.001020554890728
        8.466095142767500       -0.000930731353410        0.001151362479915        0.001547209945220        0.000930731353315       -0.001151362480011       -0.001547209945220
        8.587039359092751       -0.001406201573945        0.001464455528106        0.002086608688134        0.001406201570654       -0.001464455531397       -0.002086608688134
        8.707983575418000       -0.001688101255344        0.002018705002928        0.002635748713791        0.001688101253637       -0.002018705004634       -0.002635748713791
        8.828927791743251       -0.002113336548015        0.002465417757732        0.003185120465393        0.002113336550175       -0.002465417755572       -0.003185120465393
        8.949872008068500       -0.002550312717553        0.002927125960111        0.003727833458171        0.002550312720339       -0.002927125957325       -0.003727833458171
        9.070816224393750       -0.002866291737305        0.003529055573810        0.004258586142487        0.002866291736618       -0.003529055574497       -0.004258586142487
        9.191760440718999       -0.003410623720469        0.003910439768110        0.004769965489467        0.003410623717932       -0.003910439770647       -0.004769965489467
        9.312704657044250       -0.003696605268250        0.004552753266729        0.005259128156889        0.003696605267586       -0.004552753267393       -0.005259128156889
        9.433648873369501       -0.004197964630669        0.004966935040306        0.005717176484221        0.004197964632186       -0.004966935038789       -0.005717176484221
        9.554593089694750       -0.004573896809948        0.005490048742542        0.006143064188655        0.004573896811258       -0.005490048741232       -0.006143064188655
        9.675537306020001       -0.004917082243092        0.006020187134979        0.006532594076520        0.004917082242588       -0.006020187135483       -0.006532594076520
        9.796481522345250       -0.005399538648870        0.006373587070011        0.006880498091395        0.005399538647911       -0.006373587070969       -0.006880498091395
        9.917425738670500       -0.005613288689896        0.006955096086684        0.007186943222682        0.005613288689867       -0.006955096086713       -0.007186943222682
       10.038369954995749       -0.006083045085181        0.007228153047531        0.007447277817238        0.006083045085240       -0.007228153047472       -0.007447277817238
       10.159314171321000       -0.006298075923275        0.007701940985997        0.007662968841861        0.006298075923268       -0.007701940986004       -0.007662968841861
       10.280258387646251       -0.006593471103130        0.008029890582799        0.007830137264850        0.006593471103507       -0.008029890582423       -0.007830137264850
       10.401202603971500       -0.006907179526109        0.008270502012166        0.007949497242524        0.006907179526687       -0.008270502011588       -0.007949497242524
       10.522146820296751       -0.006996257904924        0.008665351325852        0.008022941912628        0.006996257904751       -0.008665351326026       -0.008022941912628
       10.643091036622000       -0.007325999874839        0.008737299462918        0.008047079176689        0.007325999873693       -0.008737299464065       -0.008047079176689
       10.764035252947250       -0.007334367012225        0.009050654572023        0.008025867090840        0.007334367011787       -0.009050654572461       -0.008025867090840
       10.884979469272501       -0.007525756249439        0.009093547542019        0.007958404121418        0.007525756250548       -0.009093547540909       -0.007958404121418
       11.005923685597750       -0.007580521846866        0.009187019577443        0.007848178200835        0.007580521847945       -0.009187019576365       -0.007848178200835
       11.126867901923001       -0.007530800485957        0.009294180522959        0.007695722504471        0.007530800485439       -0.009294180523477       -0.007695722504471
       11.247812118248250       -0.007656982756559        0.009130013805572        0.007501753791084        0.007656982755310       -0.009130013806821       -0.007501753791084
       11.368756334573501       -0.007435123932842        0.009226779128396        0.007272760015664        0.007435123932692       -0.009226779128546       -0.007272760015664
       11.489700550898750       -0.007473738248380        0.008967277985737        0.007007576513830        0.007473738249148       -0.008967277984969       -0.007007576513830
       11.610644767224001       -0.007261717017184        0.008868487745190        0.006711393549464        0.007261717017694       -0.008868487744680       -0.006711393549464
       11.731588983549251       -0.007075007645429        0.008653398155908        0.006386298838838        0.007075007645299       -0.008653398156038       -0.006386298838838
       11.852533199874500       -0.006943171461278        0.008295442721573        0.006035986836076        0.006943171461097       -0.008295442721754       -0.006035986836076
       11.973477416199751       -0.006540445113403        0.008126597056502        0.005665238638448        0.006540445113376       -0.008126597056529       -0.005665238638448
       12.094421632525000       -0.006415370490314        0.007593864115199        0.005274544770540        0.006415370489636       -0.007593864115877       -0.005274544770540
       12.215365848850251       -0.005951392092633        0.007329852283458        0.004872066385823        0.005951392092290       -0.007329852283801       -0.004872066385823
       12.336310065175500       -0.005661823863823        0.006818693381146        0.004458677878669        0.005661823865055       -0.006818693379915       -0.004458677878669
       12.457254281500751       -0.005298185166347        0.006317384682770        0.004039186982870        0.005298185167530       -0.006317384681587       -0.004039186982870
       12.578198497826001       -0.004784009090135        0.005912569035053        0.003618628144535        0.004784009089426       -0.005912569035762       -0.003618628144535
       12.699142714151250       -0.004509725914549        0.005218373004843        0.003199797837538        0.004509725912192       -0.005218373007200       -0.003199797837538
       12.820086930476501       -0.003895683088050        0.004831295788050        0.002789247207635        0.003895683087511       -0.004831295788589       -0.002789247207635
       12.941031146801750       -0.003565025575211        0.004126305554570        0.002387087975929        0.003565025578037       -0.004126305551744       -0.002387087975929
       13.061975363127001       -0.003041318428124        0.003601174883544        0.002000499272302        0.003041318430079       -0.003601174881589       -0.002000499272302
       13.182919579452250       -0.002537930707780        0.003051778694716        0.001632350478206        0.002537930705877       -0.003051778696619       -0.001632350478206
       13.303863795777501       -0.002186075785818        0.002354049306486        0.001284588922384        0.002186075782637       -0.002354049309667       -0.001284588922384
       13.424808012102751       -0.001564503197232        0.001949800349408        0.000962587670860        0.001564503197280       -0.001949800349360       -0.000962587670860
