#             time (fs)      |   total net charge (e)  |   charge (atom_1) (e)   |   charge (atom_2) (e)   |        ...        |   charge (atom_N) (e)   |
          0.000000000000000       -0.000000000000000       -0.000000000000000        0.000000000000000
          0.120944216325250        0.000000000001901       -0.000072659178689        0.000072659180591
          0.241888432650500        0.000000000004085       -0.000174480642211        0.000174480646296
          0.362832648975750        0.000000000006197        0.000219885178904       -0.000219885172707
          0.483776865301000        0.000000000007981        0.000416142105164       -0.000416142097184
          0.604721081626250        0.000000000008923       -0.000073563996416        0.000073564005339
          0.725665297951500        0.000000000008837       -0.000693652871951        0.000693652880788
          0.846609514276750        0.000000000007570       -0.000298688244091        0.000298688251661
          0.967553730602000        0.000000000004109        0.000735727456928       -0.000735727452818
          1.088497946927250       -0.000000000000735        0.000830117629519       -0.000830117630254
          1.209442163252500       -0.000000000008045       -0.000460496379016        0.000460496370971
          1.330386379577750       -0.000000000016797       -0.001253160181404        0.001253160164607
          1.451330595903000       -0.000000000028269       -0.000214073333147        0.000214073304878
          1.572274812228250       -0.000000000042119        0.001429456561613       -0.001429456603732
          1.693219028553500       -0.000000000056058        0.000969654916545       -0.000969654972603
          1.814163244878750       -0.000000000073592       -0.000985137982956        0.000985137909365
          1.935107461204000       -0.000000000090683       -0.001821189259820        0.001821189169137
          2.056051677529250       -0.000000000109815        0.000284406817965       -0.000284406927780
          2.176995893854500       -0.000000000128572        0.001982580667840       -0.001982580796412
          2.297940110179750       -0.000000000146897        0.001056169090286       -0.001056169237183
          2.418884326505000       -0.000000000166618       -0.001928801830002        0.001928801663384
          2.539828542830250       -0.000000000182224       -0.001889623559944        0.001889623377719
          2.660772759155500       -0.000000000198941        0.000683224447391       -0.000683224646332
          2.781716975480750       -0.000000000212681        0.002873081289253       -0.002873081501934
          2.902661191806000       -0.000000000223951        0.000379638687252       -0.000379638911202
          3.023605408131250       -0.000000000233199       -0.002424667432062        0.002424667198863
          3.144549624456500       -0.000000000238217       -0.002251791793384        0.002251791555167
          3.265493840781750       -0.000000000241759        0.001894352205978       -0.001894352447737
          3.386438057107000       -0.000000000240817        0.002931177014708       -0.002931177255526
          3.507382273432250       -0.000000000236879        0.000094201958215       -0.000094202195094
          3.628326489757500       -0.000000000229321       -0.003583542976709        0.003583542747388
          3.749270706082750       -0.000000000219230       -0.001573138518403        0.001573138299173
          3.870214922408000       -0.000000000204555        0.002488541848794       -0.002488542053350
          3.991159138733250       -0.000000000189691        0.003437561207738       -0.003437561397429
          4.112103355058500       -0.000000000168691       -0.001136792182504        0.001136792013813
          4.233047571383750       -0.000000000148181       -0.003909178625222        0.003909178477041
          4.353991787709000       -0.000000000126804       -0.001211306605975        0.001211306479170
          4.474936004034250       -0.000000000098987        0.003675530069300       -0.003675530168286
          4.595880220359500       -0.000000000078022        0.003076495243381       -0.003076495321403
          4.716824436684750       -0.000000000048104       -0.002044570051769        0.002044570003665
          4.837768653010000       -0.000000000027122       -0.004405324129310        0.004405324102187
          4.958712869335250       -0.000000000000623       -0.000211119538647        0.000211119538024
          5.079657085660500        0.000000000025995        0.004467011361176       -0.004467011335181
          5.200601301985750        0.000000000041452        0.002597029023190       -0.002597028981737
          5.321545518311000        0.000000000069610       -0.003170553716582        0.003170553786192
          5.442489734636251        0.000000000081430       -0.004499843513858        0.004499843595288
          5.563433950961501        0.000000000102443        0.000971145283535       -0.000971145181092
          5.684378167286750        0.000000000115068        0.005046907865463       -0.005046907750395
          5.805322383612000        0.000000000123766        0.001863375129323       -0.001863375005557
          5.926266599937250        0.000000000140790       -0.004371170996540        0.004371171137330
          6.047210816262500        0.000000000139217       -0.004121637130183        0.004121637269400
          6.168155032587750        0.000000000152345        0.002127756589529       -0.002127756437184
          6.289099248913001        0.000000000153270        0.005561020550570       -0.005561020397299
          6.410043465238251        0.000000000156140        0.000645276181638       -0.000645276025497
          6.530987681563500        0.000000000161174       -0.005246163496233        0.005246163657407
          6.651931897888750        0.000000000158416       -0.003627538144769        0.003627538303185
          6.772876114214000        0.000000000164892        0.003572407140140       -0.003572406975247
          6.893820330539250        0.000000000162982        0.005564205358350       -0.005564205195368
          7.014764546864500        0.000000000166352       -0.000604903468755        0.000604903635107
          7.135708763189751        0.000000000168865       -0.006126980088986        0.006126980257851
          7.256652979515001        0.000000000172119       -0.002640012855289        0.002640013027407
          7.377597195840250        0.000000000174249        0.004875505519309       -0.004875505345061
          7.498541412165500        0.000000000181211        0.005345899516549       -0.005345899335337
          7.619485628490750        0.000000000182469       -0.002123898903393        0.002123899085862
          7.740429844816000        0.000000000189388       -0.006703287080221        0.006703287269608
          7.861374061141250        0.000000000194700       -0.001362717195156        0.001362717389857
          7.982318277466501        0.000000000192592        0.006099542129850       -0.006099541937258
          8.103262493791750        0.000000000207016        0.004781684493659       -0.004781684286644
          8.224206710117000        0.000000000195844       -0.003814558811694        0.003814559007538
          8.345150926442249        0.000000000206437       -0.006879463210946        0.006879463417383
          8.466095142767500        0.000000000201474        0.000113031853210       -0.000113031651736
          8.587039359092751        0.000000000193993        0.007260196835222       -0.007260196641230
          8.707983575418000        0.000000000200128        0.003686067040687       -0.003686066840559
          8.828927791743251        0.000000000173696       -0.005397141016226        0.005397141189923
          8.949872008068500        0.000000000184208       -0.006787345600120        0.006787345784327
          9.070816224393750        0.000000000155863        0.001967870533287       -0.001967870377424
          9.191760440718999        0.000000000145269        0.007994432895552       -0.007994432750283
          9.312704657044250        0.000000000136678        0.002293744330073       -0.002293744193395
          9.433648873369501        0.000000000101890       -0.006971772211493        0.006971772313382
          9.554593089694750        0.000000000102682       -0.006150893183389        0.006150893286071
          9.675537306020001        0.000000000062069        0.003934835402647       -0.003934835340578
          9.796481522345250        0.000000000056161        0.008291853918736       -0.008291853862575
          9.917425738670500        0.000000000031781        0.000588921355486       -0.000588921323704
         10.038369954995749        0.000000000003551       -0.008394650541478        0.008394650545029
         10.159314171321000       -0.000000000000695       -0.004839802443606        0.004839802442911
         10.280258387646251       -0.000000000032984        0.005673720247110       -0.005673720280094
         10.401202603971500       -0.000000000036610        0.008336589481569       -0.008336589518180
         10.522146820296751       -0.000000000057111       -0.001723980705854        0.001723980648743
         10.643091036622000       -0.000000000065924       -0.008989224289933        0.008989224224010
         10.764035252947250       -0.000000000070715       -0.003516923034206        0.003516922963491
         10.884979469272501       -0.000000000078639        0.007750560212065       -0.007750560290704
         11.005923685597750       -0.000000000078884        0.007213062157317       -0.007213062236201
         11.126867901923001       -0.000000000075639       -0.003511037431016        0.003511037355377
         11.247812118248250       -0.000000000072153       -0.009700566237537        0.009700566165384
         11.368756334573501       -0.000000000064088       -0.001122104437601        0.001122104373513
         11.489700550898750       -0.000000000047796        0.008744995043321       -0.008744995091118
         11.610644767224001       -0.000000000046927        0.006249367585693       -0.006249367632621
         11.731588983549251       -0.000000000012618       -0.005932707269105        0.005932707256487
         11.852533199874500       -0.000000000011043       -0.009089628656907        0.009089628645864
         11.973477416199751        0.000000000016296        0.000800687005758       -0.000800686989463
         12.094421632525000        0.000000000039406        0.009895355878557       -0.009895355839151
         12.215365848850251        0.000000000045802        0.004199469919796       -0.004199469873994
         12.336310065175500        0.000000000093106       -0.007517735244513        0.007517735337618
         12.457254281500751        0.000000000081534       -0.008403500933151        0.008403501014686
         12.578198497826001        0.000000000128192        0.003227678788533       -0.003227678660341
         12.699142714151250        0.000000000135117        0.010069518048491       -0.010069517913374
         12.820086930476501        0.000000000144731        0.002174427710357       -0.002174427565626
         12.941031146801750        0.000000000182728       -0.009002347769828        0.009002347952557
         13.061975363127001        0.000000000163878       -0.006962158524926        0.006962158688804
         13.182919579452250        0.000000000208308        0.005349526337425       -0.005349526129117
         13.303863795777501        0.000000000189605        0.009813852973214       -0.009813852783608
         13.424808012102751        0.000000000207177       -0.000119496006949        0.000119496214127
         13.545752228428000        0.000000000220007       -0.009967564166713        0.009967564386719
         13.666696444753251        0.000000000199459       -0.005137125962745        0.005137126162203
         13.787640661078500        0.000000000227378        0.007235663943749       -0.007235663716371
         13.908584877403751        0.000000000202568        0.009054115835768       -0.009054115633199
         14.029529093729000        0.000000000216841       -0.002489694584313        0.002489694801154
         14.150473310054251        0.000000000209252       -0.010410047180696        0.010410047389948
         14.271417526379501        0.000000000201979       -0.003047934108344        0.003047934310323
         14.392361742704750        0.000000000209309        0.008843862535960       -0.008843862326652
         14.513305959030001        0.000000000196536        0.007805285672531       -0.007805285475996
         14.634250175355250        0.000000000200493       -0.004795695704837        0.004795695905329
         14.755194391680501        0.000000000197196       -0.010356277153253        0.010356277350449
         14.876138608005750        0.000000000196607       -0.000775130058708        0.000775130255315
         14.997082824331001        0.000000000193159        0.010139335584319       -0.010139335391160
         15.118027040656251        0.000000000201202        0.006059693189331       -0.006059692988128
         15.238971256981500        0.000000000187591       -0.006855662668199        0.006855662855790
         15.359915473306751        0.000000000204099       -0.009944839013747        0.009944839217846
         15.480859689632000        0.000000000191432        0.001799430676469       -0.001799430485037
         15.601803905957251        0.000000000191751        0.010814844278160       -0.010814844086409
         15.722748122282500        0.000000000205355        0.004157532691331       -0.004157532485976
         15.843692338607751        0.000000000172666       -0.008930888616747        0.008930888789413
         15.964636554933001        0.000000000202658       -0.008756115137761        0.008756115340418
         16.085580771258250        0.000000000165330        0.004139488289399       -0.004139488124069
         16.206524987583499        0.000000000176652        0.011283418049890       -0.011283417873238
         16.327469203908752        0.000000000165053        0.001623385524981       -0.001623385359927
         16.448413420234001        0.000000000128276       -0.010349963346941        0.010349963475217
         16.569357636559250        0.000000000155273       -0.007352394073191        0.007352394228463
         16.690301852884499        0.000000000091675        0.006710245981837       -0.006710245890162
         16.811246069209751        0.000000000108988        0.010870333273395       -0.010870333164406
         16.932190285535000        0.000000000070834       -0.000871726090794        0.000871726161628
         17.053134501860249        0.000000000044050       -0.011534390710382        0.011534390754432
         17.174078718185502        0.000000000045851       -0.005223080573741        0.005223080619592
         17.295022934510751       -0.000000000015261        0.008856589572597       -0.008856589587858
         17.415967150836000        0.000000000002800        0.009948077988743       -0.009948077985943
         17.536911367161249       -0.000000000049144       -0.003548257231991        0.003548257182847
         17.657855583486501       -0.000000000060354       -0.012055900910105        0.012055900849751
         17.778799799811750       -0.000000000073413       -0.002651815522751        0.002651815449338
         17.899744016136999       -0.000000000106787        0.010481988012589       -0.010481988119376
         18.020688232462252       -0.000000000101380        0.008531485368593       -0.008531485469973
         18.141632448787501       -0.000000000132418       -0.006342343404291        0.006342343271873
         18.262576665112750       -0.000000000130549       -0.011554189236776        0.011554189106227
         18.383520881437999       -0.000000000138914       -0.000194358749337        0.000194358610423
         18.504465097763251       -0.000000000141766        0.011935625335261       -0.011935625477026
         18.625409314088500       -0.000000000141728        0.006046167786611       -0.006046167928340
         18.746353530413749       -0.000000000131408       -0.008245280656283        0.008245280524875
         18.867297746739002       -0.000000000132443       -0.010923223963220        0.010923223830777
         18.988241963064251       -0.000000000110734        0.002954954024800       -0.002954954135534
         19.109186179389500       -0.000000000100399        0.011976195867641       -0.011976195968040
         19.230130395714749       -0.000000000092634        0.003871958290939       -0.003871958383573
         19.351074612040001       -0.000000000048372       -0.010348492285187        0.010348492236814
         19.472018828365250       -0.000000000058569       -0.008905012493656        0.008905012435086
         19.592963044690499       -0.000000000004998        0.005194030129467       -0.005194030134465
         19.713907261015752       -0.000000000004358        0.011969380977308       -0.011969380981665
         19.834851477341001        0.000000000027115        0.000837742805843       -0.000837742778728
         19.955795693666250        0.000000000069583       -0.011164564997011        0.011164565066595
         20.076739909991499        0.000000000054061       -0.006986541954878        0.006986542008939
         20.197684126316751        0.000000000124553        0.007610427486202       -0.007610427361648
         20.318628342642000        0.000000000104784        0.010770704813974       -0.010770704709190
         20.439572558967249        0.000000000149275       -0.001703888164271        0.001703888313547
         20.560516775292502        0.000000000166110       -0.011716970783048        0.011716970949157
         20.681460991617751        0.000000000160752       -0.004392157641729        0.004392157802480
         20.802405207943000        0.000000000212961        0.009206918694981       -0.009206918482020
         20.923349424268253        0.000000000178240        0.009299755638333       -0.009299755460093
         21.044293640593501        0.000000000225759       -0.004285492460134        0.004285492685892
         21.165237856918750        0.000000000215134       -0.011424968871392        0.011424969086526
         21.286182073243999        0.000000000217098       -0.001852470099524        0.001852470316622
         21.407126289569252        0.000000000238521        0.010421764421765       -0.010421764183244
         21.528070505894501        0.000000000215155        0.007276789119203       -0.007276788904048
         21.649014722219750        0.000000000242992       -0.006414578803455        0.006414579046447
         21.769958938545003        0.000000000224730       -0.010715157663134        0.010715157887864
         21.890903154870252        0.000000000233185        0.000811342905380       -0.000811342672195
         22.011847371195501        0.000000000234787        0.010951954656553       -0.010951954421765
         22.132791587520749        0.000000000229675        0.005135763035152       -0.005135762805477
         22.253735803846002        0.000000000234940       -0.008338526235652        0.008338526470592
         22.374680020171251        0.000000000235689       -0.009344839290486        0.009344839526175
         22.495624236496500        0.000000000234875        0.003147402204676       -0.003147401969801
         22.616568452821753        0.000000000238917        0.011199107811396       -0.011199107572479
         22.737512669147002        0.000000000243505        0.002557978820702       -0.002557978577196
         22.858456885472251        0.000000000233860       -0.009552531863162        0.009552532097022
         22.979401101797500        0.000000000256026       -0.007889827095835        0.007889827351861
         23.100345318122752        0.000000000232747        0.005632598921103       -0.005632598688356
