#           time (fs)    |     mu_x (e.angstrom)   |     mu_y (e.angstrom)   |     mu_z (e.angstrom)   |
        0.000000000000000       -0.000000000000000       -0.000000000000000        0.000000000000000
        0.002418884326505       -0.000000003808848       -0.000000002667656        0.000041429424034
        0.004837768653010       -0.000000015229636       -0.000000010666264        0.000082822367010
        0.007256652979515       -0.000000034075800       -0.000000023865654        0.000123548320474
        0.009675537306020       -0.000000067446489       -0.000000047236985        0.000183404373719
        0.012094421632525       -0.000000111204292       -0.000000077883713        0.000241924326129
        0.014513305959030       -0.000000186666696       -0.000000130734333        0.000338413863252
        0.016932190285535       -0.000000278567248       -0.000000195098596        0.000432891795723
        0.019351074612040       -0.000000429139705       -0.000000300553307        0.000583530427137
        0.021769958938545       -0.000000605160475       -0.000000423832372        0.000731469373271
        0.024188843265050       -0.000000875840889       -0.000000613406009        0.000952801141987
        0.026607727591555       -0.000001183746346       -0.000000829052317        0.001170726705208
        0.029026611918060       -0.000001630283725       -0.000001141789385        0.001478023281917
        0.031445496244565       -0.000002128337893       -0.000001490608869        0.001781183266591
        0.033864380571070       -0.000002815699405       -0.000001972009923        0.002188164028975
        0.036283264897575       -0.000003571078346       -0.000002501050178        0.002590249065407
        0.038702149224080       -0.000004571645569       -0.000003201808544        0.003108826613619
        0.041121033550585       -0.000005658584436       -0.000003963061085        0.003621716322678
        0.043539917877090       -0.000007050118499       -0.000004937637724        0.004261771577638
        0.045958802203595       -0.000008547833707       -0.000005986582759        0.004895310413941
        0.048377686530100       -0.000010411254233       -0.000007291650721        0.005664500973275
        0.050796570856605       -0.000012401686412       -0.000008685676396        0.006426307412215
        0.053215455183110       -0.000014818713477       -0.000010378469337        0.007329912307043
        0.055634339509615       -0.000017384141077       -0.000012175200394        0.008225224507359
        0.058053223836120       -0.000020434852711       -0.000014311801944        0.009266027919527
        0.060472108162625       -0.000023655429293       -0.000016567374937        0.010297588407449
        0.062890992489130       -0.000027415789310       -0.000019200987282        0.011475804280043
        0.065309876815635       -0.000031367059684       -0.000021968310965        0.012643785572378
        0.067728761142140       -0.000035906471716       -0.000025147541789        0.013957024386279
        0.070147645468645       -0.000040656923047       -0.000028474582008        0.015258996807796
        0.072566529795150       -0.000046035866644       -0.000032241788905        0.016702275114029
        0.074985414121655       -0.000051644570462       -0.000036169917148        0.018133217380160
        0.077404298448160       -0.000057912373922       -0.000040559647797        0.019699009983213
        0.079823182774665       -0.000064426773618       -0.000045122091638        0.021251362423343
        0.082242067101170       -0.000071619575845       -0.000050159656368        0.022929696415855
        0.084660951427675       -0.000079073471732       -0.000055380088278        0.024593456017322
        0.087079835754180       -0.000087212421980       -0.000061080299233        0.026372045183580
        0.089498720080685       -0.000095624202393       -0.000066971597709        0.028134900953513
        0.091917604407190       -0.000104713942237       -0.000073337705684        0.029999318399491
        0.094336488733695       -0.000114085104493       -0.000079900919382        0.031846824882773
        0.096755373060200       -0.000124112570923       -0.000086923775551        0.033780711125598
        0.099174257386705       -0.000134426570363       -0.000094147317200        0.035696497293648
        0.101593141713210       -0.000145360152554       -0.000101804782553        0.037681800464046
        0.104012026039715       -0.000156581611464       -0.000109663874912        0.039647810611720
        0.106430910366220       -0.000168370686753       -0.000117920495270        0.041665054899194
        0.108849794692725       -0.000180444987779       -0.000126376886370        0.043661817665694
        0.111268679019230       -0.000193019854713       -0.000135183845492        0.045690395676766
        0.113687563345735       -0.000205873135688       -0.000144185805012        0.047697316849860
        0.116106447672240       -0.000219145353952       -0.000153481162675        0.049715801163118
        0.118525331998745       -0.000232684912875       -0.000162963765573        0.051711475542071
        0.120944216325250       -0.000246548051551       -0.000172672981618        0.053697944433892
        0.123363100651755       -0.000260663162070       -0.000182558679268        0.055660481720246
        0.125781984978260       -0.000274993949211       -0.000192595418722        0.057592853811067
        0.128200869304765       -0.000289557078474       -0.000202794891847        0.059500213275154
        0.130619753631270       -0.000304216936582       -0.000213062100309        0.061356585707049
        0.133038637957775       -0.000319085348886       -0.000223475382122        0.063186914242177
        0.135457522284280       -0.000333922292715       -0.000233866614917        0.064945898948677
        0.137876406610785       -0.000348940014262       -0.000244384467160        0.066677867077864
        0.140295290937290       -0.000363790879600       -0.000254785450289        0.068318919745815
        0.142714175263795       -0.000378790991872       -0.000265290969426        0.069932050187374
        0.145133059590300       -0.000393483956706       -0.000275581365299        0.071435786637122
        0.147551943916805       -0.000408291178836       -0.000285951791118        0.072910770164099
        0.149970828243310       -0.000422648531821       -0.000296007137478        0.074259265085724
        0.152389712569815       -0.000437082045842       -0.000306115831784        0.075578258627512
        0.154808596896320       -0.000450923151244       -0.000315809618244        0.076755321903249
        0.157227481222825       -0.000464799618488       -0.000325528177441        0.077902224131655
        0.159646365549330       -0.000477944022059       -0.000334734020719        0.078893650342831
        0.162065249875835       -0.000491080734318       -0.000343934482760        0.079854350354273
        0.164484134202340       -0.000503351350822       -0.000352528359101        0.080648137508716
        0.166903018528845       -0.000515569456263       -0.000361085462801        0.081410732652699
        0.169321902855350       -0.000526795776809       -0.000368947954271        0.081997266668236
        0.171740787181855       -0.000537923518181       -0.000376741407229        0.082552246072619
        0.174159671508360       -0.000547944774097       -0.000383759917571        0.082924448105882
        0.176578555834865       -0.000557820675474       -0.000390676628044        0.083264839003302
        0.178997440161370       -0.000566488895284       -0.000396747523667        0.083418273311499
        0.181416324487875       -0.000574964833543       -0.000402683751724        0.083539747869976
        0.183835208814380       -0.000582147730667       -0.000407714384140        0.083472688527072
        0.186254093140885       -0.000589091829101       -0.000412577768235        0.083373629521511
        0.188672977467390       -0.000594675460161       -0.000416488335834        0.083087084969306
        0.191091861793895       -0.000599974744016       -0.000420199752651        0.082768609289491
        0.193510746120400       -0.000603865881139       -0.000422924962170        0.082266304378023
        0.195929630446905       -0.000607428638528       -0.000425420180118        0.081732244042240
        0.198348514773410       -0.000609556803626       -0.000426910671376        0.081020559892224
        0.200767399099915       -0.000611314599995       -0.000428141761445        0.080277400913527
        0.203186283426420       -0.000611633714732       -0.000428365262915        0.079365273605550
        0.205605167752925       -0.000611543014905       -0.000428301734697        0.078422053729037
        0.208024052079430       -0.000610032626692       -0.000427243922148        0.077320833479501
        0.210442936405935       -0.000608075985327       -0.000425873557587        0.076189000463647
        0.212861820732440       -0.000604742037255       -0.000423538593316        0.074912273575800
        0.215280705058945       -0.000600928826173       -0.000420867956101        0.073605506318368
        0.217699589385450       -0.000595803947018       -0.000417278692042        0.072168882788308
        0.220118473711955       -0.000590170596281       -0.000413333296453        0.070702878188056
        0.222537358038460       -0.000583313895591       -0.000408531130661        0.069123748391117
        0.224956242364965       -0.000575923634116       -0.000403355259899        0.067515977380982
        0.227375126691470       -0.000567419996629       -0.000397399642395        0.065813241754786
        0.229794011017975       -0.000558362087511       -0.000391055813030        0.064082678431962
        0.232212895344480       -0.000548320970711       -0.000384023403651        0.062276454500831
        0.234631779670985       -0.000537709446023       -0.000376591479526        0.060443282706215
        0.237050663997490       -0.000526263194216       -0.000368574967168        0.058554594150706
        0.239469548323995       -0.000514235103717       -0.000360150932855        0.056639896207800
        0.241888432650500       -0.000501536801518       -0.000351257532144        0.054690348966967
        0.244307316977005       -0.000488249999249       -0.000341951942757        0.052715781572455
        0.246726201303510       -0.000474470896596       -0.000332301590622        0.050727232170343
        0.249145085630015       -0.000460101398571       -0.000322237721245        0.048714694630582
        0.251563969956520       -0.000445427948133       -0.000311961002033        0.046708916038799
        0.253982854283025       -0.000430166903111       -0.000301272726155        0.044680216164780
        0.256401738609530       -0.000414797459037       -0.000290508559564        0.042678566547685
        0.258820622936035       -0.000398847782428       -0.000279337991597        0.040655089553468
        0.261239507262540       -0.000382989016746       -0.000268231122859        0.038678189190577
        0.263658391589045       -0.000366561745008       -0.000256726064885        0.036680574885897
        0.266077275915550       -0.000350424844276       -0.000245424401042        0.034747996428142
        0.268496160242055       -0.000333735273408       -0.000233735638366        0.032795829855533
        0.270915044568560       -0.000317531983513       -0.000222387478201        0.030925806850070
        0.273333928895065       -0.000300795660484       -0.000210665971889        0.029037327292465
        0.275752813221570       -0.000284734251513       -0.000199417179873        0.027246485608206
        0.278171697548075       -0.000268162891372       -0.000187811207251        0.025438318588148
        0.280590581874580       -0.000252444117207       -0.000176802383802        0.023741434996072
        0.283009466201085       -0.000236241521278       -0.000165454679712        0.022028351507411
        0.285428350527590       -0.000221054649969       -0.000154818381009        0.020438143222204
        0.287847234854095       -0.000205412701767       -0.000143863333497        0.018832849985840
        0.290266119180600       -0.000190931692624       -0.000133721394070        0.017359798466132
        0.292685003507105       -0.000176026507953       -0.000123282348059        0.015872762490673
        0.295103887833610       -0.000162406409865       -0.000113743358300        0.014524974232780
        0.297522772160115       -0.000148394715928       -0.000103930079654        0.013164284397640
        0.299941656486620       -0.000135768358466       -0.000095087068392        0.011947390851917
        0.302360540813125       -0.000122784173770       -0.000085993418648        0.010718658624276
        0.304779425139630       -0.000111259218369       -0.000077921787909        0.009635756724493
        0.307198309466135       -0.000099410900793       -0.000069623656853        0.008542057482981
        0.309617193792640       -0.000089067313698       -0.000062379412002        0.007593691618480
        0.312036078119145       -0.000078435038346       -0.000054932951254        0.006635547396609
        0.314454962445650       -0.000069323040216       -0.000048551264975        0.005819732985727
        0.316873846772155       -0.000059956761762       -0.000041991460892        0.004995136778167
        0.319292731098660       -0.000052095300888       -0.000036485603888        0.004307424930929
        0.321711615425165       -0.000044013247078       -0.000030825222472        0.003611906036993
        0.324130499751670       -0.000037389034369       -0.000026185887599        0.003045488136482
        0.326549384078175       -0.000030576768385       -0.000021414817813        0.002472217358796
        0.328968268404680       -0.000025143902554       -0.000017609857574        0.002018067754730
        0.331387152731185       -0.000019553982193       -0.000013694872648        0.001558000637553
        0.333806037057690       -0.000015234183347       -0.000010669462790        0.001205055042522
        0.336224921384195       -0.000010786434581       -0.000007554411810        0.000847110733564
        0.338643805710700       -0.000007469893651       -0.000005231646229        0.000582477351451
        0.341062690037205       -0.000004052305327       -0.000002838080755        0.000313750112542
        0.343481574363710       -0.000001599145790       -0.000001119995230        0.000122950018193
        0.345900458690215        0.000000930618828        0.000000651772073       -0.000071050098067
        0.348319343016720        0.000002688281559        0.000001882757566       -0.000203817261362
        0.350738227343225        0.000004500771852        0.000003152173104       -0.000338898502431
        0.353157111669730        0.000005756198929        0.000004031411385       -0.000430467829520
        0.355575995996235        0.000007047489013        0.000004935798124       -0.000523469921550
        0.357994880322740        0.000008016150777        0.000005614196505       -0.000591408197037
        0.360413764649245        0.000009004613739        0.000006306494764       -0.000659899249559
        0.362832648975750        0.000009920532831        0.000006947953898       -0.000722190431157
        0.365251533302255        0.000010843124440        0.000007594118600       -0.000784152451069
        0.367670417628760        0.000011954785280        0.000008372667638       -0.000858876740850
        0.370089301955265        0.000013062893978        0.000009148761795       -0.000932384807951
        0.372508186281770        0.000014628783152        0.000010245435041       -0.001037396458756
        0.374927070608275        0.000016183711845        0.000011334465373       -0.001140296706116
        0.377345954934780        0.000018467561626        0.000012933971021       -0.001292905722467
        0.379764839261285        0.000020735714450        0.000014522516949       -0.001442497276963
        0.382183723587790        0.000024001528230        0.000016809753087       -0.001659160102656
        0.384602607914295        0.000027249382025        0.000019084444937       -0.001871886074007
        0.387021492240800        0.000031756325739        0.000022240921687       -0.002167910213542
        0.389440376567305        0.000036245271206        0.000025384827636       -0.002459062675140
        0.391859260893810        0.000042242518749        0.000029585057079       -0.002848329974962
        0.394278145220315        0.000048223660172        0.000033774041076       -0.003231773658566
        0.396697029546820        0.000055945283289        0.000039181958321       -0.003726486679983
        0.399115913873325        0.000063654288087        0.000044581072909       -0.004214405811871
        0.401534798199830        0.000073314282127        0.000051346552312       -0.004824861364350
        0.403953682526335        0.000082966372362        0.000058106530869       -0.005427533706789
        0.406372566852840        0.000094753908656        0.000066362060980       -0.006161927183098
        0.408791451179345        0.000106539085862        0.000074615973373       -0.006887528916899
        0.411210335505850        0.000120614079212        0.000084473552566       -0.007751792586245
        0.413629219832355        0.000134692671551        0.000094333686549       -0.008606237183813
        0.416048104158860        0.000151181747455        0.000105881998615       -0.009603915062765
        0.418466988485365        0.000167680364198        0.000117437026502       -0.010590728763399
        0.420885872811870        0.000186673305010        0.000130738951670       -0.011722890104784
        0.423304757138375        0.000205681277801        0.000144051437937       -0.012843126023145
        0.425723641464880        0.000227228020084        0.000159141949930       -0.014108318849179
        0.428142525791385        0.000248794403330        0.000174246250397       -0.015360511132656
        0.430561410117890        0.000272902650311        0.000191130744284       -0.016754756599864
        0.432980294444395        0.000297033844580        0.000208031341644       -0.018134915410800
        0.435399178770900        0.000323667347988        0.000226684430500       -0.019651743140995
        0.437818063097405        0.000350325400484        0.000245354744032       -0.021153390585704
        0.440236947423910        0.000379402955277        0.000265719554879       -0.022783914440156
        0.442655831750415        0.000408504580574        0.000286101254613       -0.024398160909098
        0.445074716076920        0.000439899764322        0.000308089245894       -0.026131194032914
        0.447493600403425        0.000471316116670        0.000330092093144       -0.027846853766359
        0.449912484729930        0.000504857792897        0.000353583407243       -0.029669061098022
        0.452331369056435        0.000538415008784        0.000377085634601       -0.031472805159976
        0.454750253382940        0.000573888600526        0.000401929989790       -0.033368890997591
        0.457169137709445        0.000609369117080        0.000426779224484       -0.035245435238437
        0.459588022035950        0.000646518643586        0.000452797341358       -0.037198362889933
        0.462006906362455        0.000683663284947        0.000478812066469       -0.039130687915346
        0.464425790688960        0.000722194141046        0.000505797614507       -0.041121927944176
        0.466844675015465        0.000760704951371        0.000532769153101       -0.043091527594018
        0.469263559341970        0.000800287395795        0.000560491193754       -0.045101330713498
        0.471682443668475        0.000839831184271        0.000588186191675       -0.047088485098173
