#             time (fs)      |   total net charge (e)  |   charge (atom_1) (e)   |   charge (atom_2) (e)   |        ...        |   charge (atom_N) (e)   |
          0.000000000000000       -0.000000000000000       -0.000000000000000        0.000000000000000
          0.120944216325250        0.000000000010795       -0.000123129460695        0.000123129471490
          0.241888432650500        0.000000000006495       -0.000135643381731        0.000135643388226
          0.362832648975750       -0.000000000009397        0.000872511976316       -0.000872511985713
          0.483776865301000       -0.000000000042357       -0.000495235911182        0.000495235868824
          0.604721081626250       -0.000000000085161       -0.001032998255304        0.001032998170143
          0.725665297951500       -0.000000000135531        0.001032196372173       -0.001032196507704
          0.846609514276750       -0.000000000187366        0.001105995166537       -0.001105995353903
          0.967553730602000       -0.000000000248798       -0.001672029677146        0.001672029428348
          1.088497946927250       -0.000000000310299       -0.001119030721954        0.001119030411654
          1.209442163252500       -0.000000000372202        0.002889543419776       -0.002889543791978
          1.330386379577750       -0.000000000431258       -0.000114068254679        0.000114067823421
          1.451330595903000       -0.000000000479843       -0.002758622725668        0.002758622245825
          1.572274812228250       -0.000000000525322        0.000178979022314       -0.000178979547636
          1.693219028553500       -0.000000000558855        0.004139063746094       -0.004139064304949
          1.814163244878750       -0.000000000593441       -0.002537646337412        0.002537645743971
          1.935107461204000       -0.000000000608347       -0.002873705572021        0.002873704963675
          2.056051677529250       -0.000000000616040        0.002692759720914       -0.002692760336954
          2.176995893854500       -0.000000000612921        0.003444051828638       -0.003444052441558
          2.297940110179750       -0.000000000594363       -0.005002330083764        0.005002329489401
          2.418884326505000       -0.000000000572402       -0.001463945126637        0.001463944554235
          2.539828542830250       -0.000000000535648        0.005284768557478       -0.005284769093127
          2.660772759155500       -0.000000000500365        0.000493041523146       -0.000493042023511
          2.781716975480750       -0.000000000455021       -0.006179474794720        0.006179474339699
          2.902661191806000       -0.000000000395320        0.001428665810575       -0.001428666205895
          3.023605408131250       -0.000000000350127        0.006301603878718       -0.006301604228845
          3.144549624456500       -0.000000000264683       -0.003648951858327        0.003648951593644
          3.265493840781750       -0.000000000252216       -0.005232894307115        0.005232894054899
          3.386438057107000       -0.000000000174497        0.004907334384160       -0.004907334558657
          3.507382273432250       -0.000000000173022        0.004724351411758       -0.004724351584779
          3.628326489757500       -0.000000000074718       -0.007276533079923        0.007276533005205
          3.749270706082750       -0.000000000097979       -0.002062301780498        0.002062301682519
          3.870214922408000       -0.000000000077123        0.007448023388744       -0.007448023465866
          3.991159138733250       -0.000000000102787        0.000822271829923       -0.000822271932710
          4.112103355058500       -0.000000000107365       -0.008878862031687        0.008878861924322
          4.233047571383750       -0.000000000119605        0.002568881216485       -0.002568881336089
          4.353991787709000       -0.000000000228799        0.007737400083734       -0.007737400312533
          4.474936004034250       -0.000000000244980       -0.004179673822758        0.004179673577778
          4.595880220359500       -0.000000000385401       -0.007543922478230        0.007543922092829
          4.716824436684750       -0.000000000396393        0.007150365999172       -0.007150366395566
          4.837768653010000       -0.000000000574069        0.005356695348577       -0.005356695922646
          4.958712869335250       -0.000000000615970       -0.008735525958968        0.008735525342998
          5.079657085660500       -0.000000000760171       -0.003169355615990        0.003169354855819
          5.200601301985750       -0.000000000821469        0.009975807607623       -0.009975808429092
          5.321545518311000       -0.000000000924772        0.000749995712962       -0.000749996637734
          5.442489734636251       -0.000000000999407       -0.011232071436333        0.011232070436926
          5.563433950961501       -0.000000001039989        0.003232543151104       -0.003232544191093
          5.684378167286750       -0.000000001086104        0.009970332047296       -0.009970333133400
          5.805322383612000       -0.000000001093895       -0.005272107371375        0.005272106277479
          5.926266599937250       -0.000000001079287       -0.010081637616601        0.010081636537314
          6.047210816262500       -0.000000001073940        0.009602273544984       -0.009602274618925
          6.168155032587750       -0.000000000978283        0.006872236739155       -0.006872237717438
          6.289099248913001       -0.000000000958519       -0.011316739217682        0.011316738259163
          6.410043465238251       -0.000000000812137       -0.004681259566241        0.004681258754104
          6.530987681563500       -0.000000000773136        0.013889560047807       -0.013889560820943
          6.651931897888750       -0.000000000633652        0.000659593548696       -0.000659594182349
          6.772876114214000       -0.000000000504594       -0.014944565372052        0.014944564867459
          6.893820330539250       -0.000000000465089        0.003825313411520       -0.003825313876609
          7.014764546864500       -0.000000000245518        0.014509110728790       -0.014509110974308
          7.135708763189751       -0.000000000330234       -0.007865878456494        0.007865878126260
          7.256652979515001        0.000000000026758       -0.013778760646363        0.013778760673121
          7.377597195840250       -0.000000000197980        0.013123911052976       -0.013123911250955
          7.498541412165500        0.000000000143140        0.010137343983606       -0.010137343840465
          7.619485628490750       -0.000000000105655       -0.016220197959183        0.016220197853527
          7.740429844816000        0.000000000222080       -0.006850250062187        0.006850250284267
          7.861374061141250        0.000000000063612        0.020111996414485       -0.020111996350873
          7.982318277466501        0.000000000112589        0.000628365291695       -0.000628365179106
          8.103262493791750        0.000000000109549       -0.020873041841896        0.020873041951445
          8.224206710117000        0.000000000000385        0.004795330763264       -0.004795330762879
          8.345150926442249        0.000000000242128        0.021357293912446       -0.021357293670318
          8.466095142767500       -0.000000000118742       -0.011847574346101        0.011847574227359
          8.587039359092751        0.000000000168364       -0.018762722634696        0.018762722803060
          8.707983575418000       -0.000000000216404        0.017812562433663       -0.017812562650067
          8.828927791743251        0.000000000102325        0.014616448103106       -0.014616448000781
          8.949872008068500       -0.000000000182318       -0.022910038220985        0.022910038038667
          9.070816224393750       -0.000000000023344       -0.008928799155224        0.008928799131880
          9.191760440718999       -0.000000000165160        0.027105087538784       -0.027105087703944
          9.312704657044250       -0.000000000145621        0.000739454872257       -0.000739455017878
          9.433648873369501       -0.000000000144163       -0.027666250755373        0.027666250611210
          9.554593089694750       -0.000000000150042        0.006403321403521       -0.006403321553564
          9.675537306020001       -0.000000000157605        0.027829036291773       -0.027829036449378
          9.796481522345250       -0.000000000055822       -0.015772006842771        0.015772006786949
          9.917425738670500       -0.000000000194685       -0.023109997998170        0.023109997803485
         10.038369954995749        0.000000000065360        0.022005017077517       -0.022005017012158
         10.159314171321000       -0.000000000250301        0.018239027134478       -0.018239027384779
         10.280258387646251        0.000000000165738       -0.028616953498002        0.028616953663740
         10.401202603971500       -0.000000000119697       -0.009751402258565        0.009751402138868
         10.522146820296751        0.000000000197591        0.031594595624954       -0.031594595427363
         10.643091036622000        0.000000000066957        0.001137358532459       -0.001137358465502
         10.764035252947250        0.000000000001619       -0.032673416808797        0.032673416810416
         10.884979469272501        0.000000000336693        0.008297915579133       -0.008297915242440
         11.005923685597750       -0.000000000156310        0.030901606097943       -0.030901606254252
         11.126867901923001        0.000000000655851       -0.017493214217050        0.017493214872901
         11.247812118248250       -0.000000000377725       -0.026062266365649        0.026062265987924
         11.368756334573501        0.000000000644072        0.024911412244933       -0.024911411600861
         11.489700550898750       -0.000000000452038        0.019639635256149       -0.019639635708187
         11.610644767224001        0.000000000567923       -0.031257034425318        0.031257034993241
         11.731588983549251       -0.000000000357619       -0.010615569826258        0.010615569468639
         11.852533199874500        0.000000000063746        0.034467899845819       -0.034467899782074
         11.973477416199751       -0.000000000251663        0.001159132183903       -0.001159132435566
         12.094421632525000       -0.000000000392513       -0.035536883876091        0.035536883483578
         12.215365848850251       -0.000000000124116        0.009047280204067       -0.009047280328183
         12.336310065175500       -0.000000000936428        0.033743687133387       -0.033743688069816
         12.457254281500751       -0.000000000219207       -0.019174505032080        0.019174504812873
         12.578198497826001       -0.000000001173783       -0.028577664667282        0.028577663493499
         12.699142714151250       -0.000000000463106        0.027252280768070       -0.027252281231176
         12.820086930476501       -0.000000001292720        0.022299978953646       -0.022299980246366
         12.941031146801750       -0.000000000824273       -0.035384231900708        0.035384231076435
         13.061975363127001       -0.000000001185727       -0.011781251197564        0.011781250011837
         13.182919579452250       -0.000000001078850        0.038896268048105       -0.038896269126955
         13.303863795777501       -0.000000001128042        0.002067326336961       -0.002067327465003
         13.424808012102751       -0.000000001092042       -0.041992849579535        0.041992848487494
         13.545752228428000       -0.000000001168226        0.010865187724261       -0.010865188892486
         13.666696444753251       -0.000000000759590        0.039964492198418       -0.039964492958008
         13.787640661078500       -0.000000001279181       -0.022450624005024        0.022450622725843
         13.908584877403751       -0.000000000253909       -0.035588142319020        0.035588142065111
         14.029529093729000       -0.000000001385779        0.033900351497299       -0.033900352883078
         14.150473310054251        0.000000000279452        0.027784431942020       -0.027784431662568
         14.271417526379501       -0.000000001156943       -0.044194586945586        0.044194585788643
         14.392361742704750        0.000000000372920       -0.015841362284259        0.015841362657179
         14.513305959030001       -0.000000000588605        0.050550280124286       -0.050550280712891
         14.634250175355250        0.000000000192740        0.002847340377528       -0.002847340184788
         14.755194391680501        0.000000000506787       -0.055207786085913        0.055207786592700
         14.876138608005750       -0.000000000538280        0.014064405026177       -0.014064405564457
         14.997082824331001        0.000000001499178        0.053351256039247       -0.053351254540069
         15.118027040656251       -0.000000001065994       -0.029465724399370        0.029465723333376
         15.238971256981500        0.000000002481445       -0.048894407694827        0.048894410176272
         15.359915473306751       -0.000000001329041        0.046512169873174       -0.046512171202215
         15.480859689632000        0.000000002437731        0.037133641975459       -0.037133639537728
         15.601803905957251       -0.000000000937484       -0.059085547034621        0.059085546097137
         15.722748122282500        0.000000002052563       -0.022856194051997        0.022856196104560
         15.843692338607751        0.000000000155011        0.069910011776988       -0.069910011621977
         15.964636554933001        0.000000000919256        0.002852112981995       -0.002852112062739
         16.085580771258250        0.000000001117512       -0.073739531744794        0.073739532862305
         16.206524987583499        0.000000000002846        0.018051836766209       -0.018051836763363
         16.327469203908752        0.000000002048303        0.072434380586889       -0.072434378538586
         16.448413420234001       -0.000000000317150       -0.040281120897442        0.040281120580292
         16.569357636559250        0.000000002100539       -0.063887552219249        0.063887554319788
         16.690301852884499       -0.000000000133246        0.060883591768664       -0.060883591901911
         16.811246069209751        0.000000001646857        0.048265249906183       -0.048265248259326
         16.932190285535000        0.000000000591650       -0.076685937565251        0.076685938156901
         17.053134501860249        0.000000001150548       -0.028383755005989        0.028383756156537
         17.174078718185502        0.000000001105858        0.088411949972339       -0.088411948866481
         17.295022934510751        0.000000001082614        0.002551949967187       -0.002551948884573
         17.415967150836000        0.000000000964852       -0.090663052675893        0.090663053640745
         17.536911367161249        0.000000001700146        0.022691757726343       -0.022691756026197
         17.657855583486501        0.000000000091182        0.087228681591469       -0.087228681500287
         17.778799799811750        0.000000002955015       -0.049310403250841        0.049310406205856
         17.899744016136999       -0.000000000801463       -0.073998775181104        0.073998774379641
         18.020688232462252        0.000000004035269        0.071036620063082       -0.071036616027813
         18.141632448787501       -0.000000001430962        0.055164170821986       -0.055164172252948
         18.262576665112750        0.000000003962446       -0.088287663105662        0.088287667068108
         18.383520881437999       -0.000000000658937       -0.030449151597847        0.030449150938909
         18.504465097763251        0.000000002940000        0.098274164760084       -0.098274161820085
         18.625409314088500        0.000000001341349        0.002437173247465       -0.002437171906115
         18.746353530413749        0.000000000398546       -0.099842462012733        0.099842462411280
         18.867297746739002        0.000000003676890        0.025774385999386       -0.025774382322496
         18.988241963064251       -0.000000001906228        0.093997254568131       -0.093997256474359
         19.109186179389500        0.000000005927248       -0.053445428112777        0.053445434040025
         19.230130395714749       -0.000000003440296       -0.079268202330292        0.079268198889995
         19.351074612040001        0.000000006195898        0.076279363028053       -0.076279356832155
         19.472018828365250       -0.000000003299886        0.058913103708791       -0.058913107008677
         19.592963044690499        0.000000005134657       -0.094621600121693        0.094621605256350
         19.713907261015752       -0.000000001517165       -0.032350701196697        0.032350699679532
         19.834851477341001        0.000000002489177        0.105153001685843       -0.105152999196666
         19.955795693666250        0.000000000729656        0.002989617625693       -0.002989616896037
         20.076739909991499        0.000000000150234       -0.108057022552289        0.108057022702523
         20.197684126316751        0.000000002525655        0.027760900332017       -0.027760897806361
         20.318628342642000       -0.000000001225818        0.102874707310404       -0.102874708536222
         20.439572558967249        0.000000002779273       -0.058457672825982        0.058457675605254
         20.560516775292502       -0.000000000757415       -0.088204340343840        0.088204339586425
         20.681460991617751        0.000000001760422        0.084766121753638       -0.084766119993216
         20.802405207943000        0.000000000680170        0.067524280176527       -0.067524279496357
         20.923349424268253        0.000000000380913       -0.108177842312243        0.108177842693156
         21.044293640593501        0.000000001862717       -0.037702814779754        0.037702816642471
         21.165237856918750        0.000000000259885        0.122194187180846       -0.122194186920961
         21.286182073243999        0.000000001527944        0.005030588600426       -0.005030587072482
         21.407126289569252        0.000000002329808       -0.129901537733438        0.129901540063246
         21.528070505894501       -0.000000001182438        0.033216540945482       -0.033216542127919
         21.649014722219750        0.000000006411323        0.125565827440508       -0.125565821029185
         21.769958938545003       -0.000000004664888       -0.070587333629523        0.070587328964634
         21.890903154870252        0.000000010752971       -0.111864751746335        0.111864762499306
         22.011847371195501       -0.000000007697713        0.107202006568640       -0.107202014266353
         22.132791587520749        0.000000012869678        0.086278941539393       -0.086278928669715
         22.253735803846002       -0.000000006734825       -0.137938424894190        0.137938418159365
         22.374680020171251        0.000000010842236       -0.051040979645979        0.051040990488215
         22.495624236496500       -0.000000002096734        0.160696502887345       -0.160696504984079
         22.616568452821753        0.000000004300027        0.006974548377392       -0.006974544077365
         22.737512669147002        0.000000007018185       -0.171630846508265        0.171630853526450
         22.858456885472251       -0.000000003960946        0.042443049604537       -0.042443053565483
         22.979401101797500        0.000000015754056        0.169105678642781       -0.169105662888726
         23.100345318122752       -0.000000011601793       -0.094546493804461        0.094546482202668
