#           time (fs)    |     mu_x (e.angstrom)   |     mu_y (e.angstrom)   |     mu_z (e.angstrom)   |
        0.000000000000000       -0.000000000000000       -0.000000000000000        0.000000000000000
        0.002418884326505       -0.000000000399434        0.000000004171943        0.000094314478487
        0.004837768653010       -0.000000005454473        0.000000056971647        0.000644001105330
        0.007256652979515       -0.000000015144272        0.000000158179561        0.001192078952938
        0.009675537306020       -0.000000037527628        0.000000391972693        0.002215591311150
        0.012094421632525       -0.000000068490894        0.000000715377726        0.003235021580776
        0.014513305959030       -0.000000120453033        0.000001258120484        0.004741333633141
        0.016932190285535       -0.000000184947198        0.000001931750828        0.006240225002895
        0.019351074612040       -0.000000278705825        0.000002911060836        0.008228598019972
        0.021769958938545       -0.000000388851721        0.000004061524029        0.010205356371566
        0.024188843265050       -0.000000536177518        0.000005600359955        0.012665264911597
        0.026607727591555       -0.000000703545755        0.000007348531525        0.015108538012927
        0.029026611918060       -0.000000915353220        0.000009560930969        0.018019764731909
        0.031445496244565       -0.000001150557878        0.000012017724855        0.020908555549146
        0.033864380571070       -0.000001436511198        0.000015004704945        0.024241453747150
        0.036283264897575       -0.000001748820704        0.000018267029238        0.027545400846323
        0.038702149224080       -0.000002116964312        0.000022112750446        0.031261320588759
        0.041121033550585       -0.000002513939068        0.000026259747446        0.034941141025756
        0.043539917877090       -0.000002970362001        0.000031028034664        0.038993011677176
        0.045958802203595       -0.000003457527720        0.000036117697203        0.043001098801748
        0.048377686530100       -0.000004006070189        0.000041849003363        0.047334157957048
        0.050796570856605       -0.000004586635146        0.000047915250180        0.051615323751096
        0.053215455183110       -0.000005228644762        0.000054624136997        0.056167979920356
        0.055634339509615       -0.000005903268201        0.000061674418908        0.060660328925720
        0.058053223836120       -0.000006637412243        0.000069347617075        0.065365142989699
        0.060472108162625       -0.000007404030025        0.000077361113301        0.070001062616277
        0.062890992489130       -0.000008226168857        0.000085956211165        0.074785831070962
        0.065309876815635       -0.000009079881214        0.000094882661834        0.079493081157972
        0.067728761142140       -0.000009983006647        0.000104327457577        0.084282002544300
        0.070147645468645       -0.000010916031511        0.000114086664526        0.088984885505608
        0.072566529795150       -0.000011890272467        0.000124279202698        0.093699790193367
        0.074985414121655       -0.000012891966454        0.000134761216698        0.098320381927859
        0.077404298448160       -0.000013924662836        0.000145570515845        0.102882004597828
        0.079823182774665       -0.000014981610477        0.000156636514519        0.107341425582610
        0.082242067101170       -0.000016057454703        0.000167903978954        0.111670699309611
        0.084660951427675       -0.000017153625105        0.000179387826244        0.115890404911927
        0.087079835754180       -0.000018254869296        0.000190929321948        0.119909755690180
        0.089498720080685       -0.000019371837944        0.000202639787173        0.123812824708219
        0.091917604407190       -0.000020478563409        0.000214248349446        0.127447445536006
        0.094336488733695       -0.000021595795492        0.000225971951846        0.130959846282227
        0.096755373060200       -0.000022686239805        0.000237421080808        0.134138930515050
        0.099174257386705       -0.000023781430136        0.000248925514076        0.137190744361354
        0.101593141713210       -0.000024832365909        0.000259973003354        0.139848658917028
        0.104012026039715       -0.000025881829308        0.000271011084035        0.142375242099306
        0.106430910366220       -0.000026868987661        0.000281403318087        0.144452622225812
        0.108849794692725       -0.000027848092621        0.000291717391765        0.146395687829669
        0.111268679019230       -0.000028746623369        0.000301194038143        0.147840436500366
        0.113687563345735       -0.000029630260849        0.000310520768230        0.149149039896958
        0.116106447672240       -0.000030415220613        0.000318819782809        0.149917216455120
        0.118525331998745       -0.000031178299022        0.000326895238318        0.150548629005865
        0.120944216325250       -0.000031825157805        0.000333758094070        0.150605213421566
        0.123363100651755       -0.000032443114582        0.000340323045304        0.150525671005827
        0.125781984978260       -0.000032928270858        0.000345500088764        0.149845192015560
        0.128200869304765       -0.000033377590613        0.000350305413307        0.149030506840265
        0.130619753631270       -0.000033678884644        0.000353561247544        0.147597524296566
        0.133038637957775       -0.000033937613504        0.000356373343675        0.146033550505122
        0.135457522284280       -0.000034034828497        0.000357492132625        0.143842984452379
        0.137876406610785       -0.000034083074244        0.000358098233395        0.141525930244469
        0.140295290937290       -0.000033958415013        0.000356888820015        0.138583231538065
        0.142714175263795       -0.000033778822652        0.000355102099068        0.135519812821038
        0.145133059590300       -0.000033417361716        0.000351402829237        0.131840972496416
        0.147551943916805       -0.000032995554471        0.000347067189250        0.128048405487849
        0.149970828243310       -0.000032385635985        0.000340750334898        0.123659802536029
        0.152389712569815       -0.000031710612162        0.000333744771541        0.119165635195871
        0.154808596896320       -0.000030844204729        0.000324720450341        0.114103724879767
        0.157227481222825       -0.000029908681610        0.000314962889091        0.108945509534811
        0.159646365549330       -0.000028781671869        0.000303182384424        0.103256356849713
        0.162065249875835       -0.000027582368671        0.000290632894561        0.097481168844443
        0.164484134202340       -0.000026194788561        0.000276091288315        0.091219834146154
        0.166903018528845       -0.000024732641530        0.000260754588031        0.084883643771165
        0.169321902855350       -0.000023088823309        0.000243492630222        0.078113429924638
        0.171740787181855       -0.000021369127230        0.000225419808893        0.071280337193915
        0.174159671508360       -0.000019477781623        0.000205524961904        0.064071909791477
        0.176578555834865       -0.000017510253354        0.000184814360053        0.056813253820421
        0.178997440161370       -0.000015384467625        0.000162420971185        0.049243648040842
        0.181416324487875       -0.000013183228697        0.000139218175221        0.041637004777268
        0.183835208814380       -0.000010840382949        0.000114506748983        0.033788534266679
        0.186254093140885       -0.000008423859790        0.000089003676012        0.025916618109524
        0.188672977467390       -0.000005885461324        0.000062199236582        0.017875702828502
        0.191091861793895       -0.000003276203247        0.000034632303963        0.009825189200555
        0.193510746120400       -0.000000567640422        0.000006001858079        0.001681120469470
        0.195929630446905        0.000002207942926       -0.000023350747576       -0.006458592336766
        0.198348514773410        0.000005057724341       -0.000053501617022       -0.014614930372942
        0.200767399099915        0.000007969702780       -0.000084323536649       -0.022753000805139
        0.203186283426420        0.000010928596225       -0.000115654896398       -0.030830433398050
        0.205605167752925        0.000013943931274       -0.000147596006851       -0.038875877803268
        0.208024052079430        0.000016977132996       -0.000179738549893       -0.046784245267021
        0.210442936405935        0.000020060156287       -0.000212420111320       -0.054647240384890
        0.212861820732440        0.000023130688541       -0.000244980798667       -0.062298686949377
        0.215280705058945        0.000026243638777       -0.000278001251662       -0.069891853545062
        0.217699589385450        0.000029312924040       -0.000310569518518       -0.077202079453297
        0.220118473711955        0.000032416533667       -0.000343510827323       -0.084441727244973
        0.222537358038460        0.000035445010141       -0.000375665240240       -0.091331184787028
        0.224956242364965        0.000038499131826       -0.000408099666241       -0.098138499491382
        0.227375126691470        0.000041446899626       -0.000439414907900       -0.104533514612919
        0.229794011017975        0.000044411161722       -0.000470912088426       -0.110835668907307
        0.232212895344480        0.000047238648383       -0.000500966139658       -0.116669471267432
        0.234631779670985        0.000050073127896       -0.000531100340738       -0.122400642730023
        0.237050663997490        0.000052741761324       -0.000559481725335       -0.127614288588097
        0.239469548323995        0.000055407662364       -0.000587839133665       -0.132716569203910
        0.241888432650500        0.000057880539038       -0.000614154090392       -0.137259743260241
        0.244307316977005        0.000060340864489       -0.000640340009199       -0.141683926843064
        0.246726201303510        0.000062583400634       -0.000664219457107       -0.145515611112170
        0.249145085630015        0.000064803604718       -0.000687865272737       -0.149221846957588
        0.251563969956520        0.000066784158304       -0.000708971440074       -0.152310846879664
        0.253982854283025        0.000068732767877       -0.000729741230739       -0.155269150097120
        0.256401738609530        0.000070423219668       -0.000747773824310       -0.157594470355363
        0.258820622936035        0.000072072412483       -0.000765370489184       -0.159785081589385
        0.261239507262540        0.000073448694920       -0.000780072289503       -0.161336146458531
        0.263658391589045        0.000074774823705       -0.000794243085004       -0.162749736061631
        0.266077275915550        0.000075817387193       -0.000805404862747       -0.163526451526446
        0.268496160242055        0.000076801439191       -0.000815946243030       -0.164164165649634
        0.270915044568560        0.000077495646329       -0.000823410903845       -0.164176822962164
        0.273333928895065        0.000078123628950       -0.000830172574032       -0.164050171445322
        0.275752813221570        0.000078460068391       -0.000833838451335       -0.163319194199344
        0.278171697548075        0.000078723312789       -0.000836726554516       -0.162449782537259
        0.280590581874580        0.000078698025710       -0.000836549783431       -0.161005321693501
        0.283009466201085        0.000078593401436       -0.000835529155860       -0.159424431691368
        0.285428350527590        0.000078208015033       -0.000831525075605       -0.157305815257106
        0.287847234854095        0.000077738050348       -0.000826620518633       -0.155053841242936
        0.290266119180600        0.000076999814338       -0.000818864065437       -0.152308887467883
        0.292685003507105        0.000076172718366       -0.000810160597470       -0.149434637072875
        0.295103887833610        0.000075094442092       -0.000798785665428       -0.146118842046754
        0.297522772160115        0.000073924026639       -0.000786427732556       -0.142678712576425
        0.299941656486620        0.000072523916118       -0.000771625495607       -0.138854324982294
        0.302360540813125        0.000071029416720       -0.000755815135529       -0.134911368261121
        0.304779425139630        0.000069330812725       -0.000737831340047       -0.130646365734423
        0.307198309466135        0.000067536610281       -0.000718825310408       -0.126269255996934
        0.309617193792640        0.000065567630325       -0.000697956564620       -0.121636239046427
        0.312036078119145        0.000063502876452       -0.000676062463971       -0.116898159949961
        0.314454962445650        0.000061295965355       -0.000652651567522       -0.111973180696013
        0.316873846772155        0.000058994116433       -0.000628222994553       -0.106950648826041
        0.319292731098660        0.000056585511879       -0.000602653368891       -0.101811992885891
        0.321711615425165        0.000054083778497       -0.000576084183377       -0.096583636193471
        0.324130499751670        0.000051512899716       -0.000548773481007       -0.091310576872133
        0.326549384078175        0.000048851619959       -0.000520491247636       -0.085955887302463
        0.328968268404680        0.000046160389260       -0.000491884235400       -0.080627431810299
        0.331387152731185        0.000043382335859       -0.000462342949066       -0.075225511927630
        0.333806037057690        0.000040614444210       -0.000432903777026       -0.069919159618911
        0.336224921384195        0.000037764077081       -0.000402575984825       -0.064547483282029
        0.338643805710700        0.000034964206279       -0.000372779967662       -0.059338015870899
        0.341062690037205        0.000032086883239       -0.000342148418139       -0.054071222941845
        0.343481574363710        0.000029299898286       -0.000312473469578       -0.049029546283597
        0.345900458690215        0.000026441057845       -0.000282022433311       -0.043938290940668
        0.348319343016720        0.000023711184050       -0.000252940305522       -0.039130347252465
        0.350738227343225        0.000020915515004       -0.000223146722189       -0.034280218713285
        0.353157111669730        0.000018285514914       -0.000195114210773       -0.029765987042203
        0.355575995996235        0.000015596128010       -0.000166438826011       -0.025216520378828
        0.357994880322740        0.000013106493598       -0.000139889106585       -0.021049121709206
        0.360413764649245        0.000010564110799       -0.000112767766652       -0.016852914960853
        0.362832648975750        0.000008252286283       -0.000088102030832       -0.013077836601940
        0.365251533302255        0.000005894463081       -0.000062937304063       -0.009279788580733
        0.367670417628760        0.000003794113449       -0.000040516860531       -0.005934240417130
        0.370089301955265        0.000001654509253       -0.000017670151571       -0.002570921490276
        0.372508186281770       -0.000000205151141        0.000002190848191        0.000316665647485
        0.374927070608275       -0.000002097440249        0.000022406532447        0.003217499884214
        0.377345954934780       -0.000003692245624        0.000039447594173        0.005627826010547
        0.379764839261285       -0.000005313278510        0.000056774078844        0.008047570821531
        0.382183723587790       -0.000006624624017        0.000070793955349        0.009970663719479
        0.384602607914295       -0.000007956118592        0.000085033398417        0.011900046436050
        0.387021492240800       -0.000008971376531        0.000095894650291        0.013335301455909
        0.389440376567305       -0.000010001115981        0.000106913993935        0.014774405922323
        0.391859260893810       -0.000010713947045        0.000114546421645        0.015730469176352
        0.394278145220315       -0.000011436079638        0.000122280697982        0.016688604311423
        0.396697029546820       -0.000011846632279        0.000126683567598        0.017183102501580
        0.399115913873325       -0.000012261858135        0.000131137984624        0.017678518528307
        0.401534798199830       -0.000012376851171        0.000132380992358        0.017737641230495
        0.403953682526335       -0.000012492491390        0.000133631748905        0.017797099659642
        0.406372566852840       -0.000012325177070        0.000131854693329        0.017455042288358
        0.408791451179345       -0.000012155122712        0.000130048495372        0.017113248080897
        0.411210335505850       -0.000011725129554        0.000125459649839        0.016411525927707
        0.413629219832355       -0.000011289670051        0.000120811923882        0.015710432365592
        0.416048104158860       -0.000010622726845        0.000113685124855        0.014697078012245
        0.418466988485365       -0.000009948259477        0.000106476946928        0.013685076651358
        0.420885872811870       -0.000009075803875        0.000097147436102        0.012413734686450
        0.423304757138375       -0.000008194427933        0.000087721216677        0.011144744337317
        0.425723641464880       -0.000007153104959        0.000076580295728        0.009673678650158
        0.428142525791385       -0.000006102106136        0.000065334281427        0.008206148631108
        0.430561410117890       -0.000004933163782        0.000052822857643        0.006597178624481
        0.432980294444395       -0.000003754396123        0.000040204529750        0.004993022567596
        0.435399178770900       -0.000002502986893        0.000026805648774        0.003310405437016
        0.437818063097405       -0.000001242161338        0.000013304116265        0.001633882715027
        0.440236947423910        0.000000043439820       -0.000000465405499       -0.000056840495222
        0.442655831750415        0.000001337549704       -0.000014327904398       -0.001740278094855
        0.445074716076920        0.000002606799186       -0.000027926620249       -0.003373454609945
        0.447493600403425        0.000003883222236       -0.000041603979074       -0.004998332992059
        0.449912484729930        0.000005084220114       -0.000054475584509       -0.006509370418704
        0.452331369056435        0.000006290709998       -0.000067407709721       -0.008011361950884
        0.454750253382940        0.000007371156536       -0.000078991294133       -0.009337882267467
        0.457169137709445        0.000008455157055       -0.000090614451861       -0.010654955142849
        0.459588022035950        0.000009363338065       -0.000100355066205       -0.011737912707933
        0.462006906362455        0.000010272975782       -0.000110112529361       -0.012811443068706
        0.464425790688960        0.000010958760640       -0.000117471897710       -0.013596189238899
        0.466844675015465        0.000011643848475       -0.000124824719331       -0.014372018668350
        0.469263559341970        0.000012059684011       -0.000129291915383       -0.014809296270771
        0.471682443668475        0.000012472718813       -0.000133729647055       -0.015238717914137
