#           time (fs)    |     mu_x (e.angstrom)   |     mu_y (e.angstrom)   |     mu_z (e.angstrom)   |
        0.000000000000000       -0.000000000000000       -0.000000000000000        0.000000000000000
        0.002418884326505        0.000000004329478       -0.000000006246536        0.000034882857428
        0.004837768653010        0.000000232721912       -0.000000335702514        0.000937432668599
        0.007256652979515        0.000000685088809       -0.000000988241856        0.001839639683646
        0.009675537306020        0.000001824947351       -0.000002632487715        0.003675123876211
        0.012094421632525        0.000003417726952       -0.000004930062144        0.005505837226762
        0.014513305959030        0.000006194773927       -0.000008935947111        0.008315815750445
        0.016932190285535        0.000009658134932       -0.000013931798848        0.011112206236409
        0.019351074612040        0.000014814199592       -0.000021369371549        0.014913100125157
        0.021769958938545        0.000020884709826       -0.000030125911454        0.018687023080887
        0.024188843265050        0.000029145370764       -0.000042041674944        0.023469208838359
        0.026607727591555        0.000038533415566       -0.000055583389491        0.028206433922467
        0.029026611918060        0.000050575115998       -0.000072952739543        0.033933894232795
        0.031445496244565        0.000063932107335       -0.000092218735172        0.039593898818905
        0.033864380571070        0.000080349744444       -0.000115899019962        0.046204448761217
        0.036283264897575        0.000098236127200       -0.000141696656456        0.052720788336060
        0.038702149224080        0.000119512120776       -0.000172382315520        0.060126878971378
        0.041121033550585        0.000142367171591       -0.000205343379405        0.067408130253756
        0.043539917877090        0.000168842981179       -0.000243524584142        0.075498213513562
        0.045958802203595        0.000196957344486       -0.000284065396694        0.083429468272479
        0.048377686530100        0.000228808329929       -0.000329991523807        0.092069889887484
        0.050796570856605        0.000262300148910       -0.000378278267976        0.100514761024547
        0.053215455183110        0.000299514562059       -0.000431927395749        0.109552133099868
        0.055634339509615        0.000338309945914       -0.000487847789056        0.118355220687174
        0.058053223836120        0.000380672709650       -0.000548903223396        0.127619213528470
        0.060472108162625        0.000424491141919       -0.000612045470033        0.136608968071744
        0.062890992489130        0.000471572926477       -0.000679880094856        0.145915452693480
        0.065309876815635        0.000519918072552       -0.000749519832850        0.154907366417113
        0.067728761142140        0.000571070028797       -0.000823188851447        0.164061835060489
        0.070147645468645        0.000623226253951       -0.000898284583500        0.172861889513022
        0.072566529795150        0.000677580617996       -0.000976526987398        0.181663081235683
        0.074985414121655        0.000732615388542       -0.001055724259522        0.190071380561903
        0.077404298448160        0.000789092038756       -0.001136973140642        0.198315041878805
        0.079823182774665        0.000845864253808       -0.001218617521183        0.206129564889477
        0.082242067101170        0.000903183183689       -0.001301019140170        0.213612280569480
        0.084660951427675        0.000960357375531       -0.001383177859632        0.220632690198136
        0.087079835754180        0.001017056944410       -0.001464619202390        0.227155725504740
        0.089498720080685        0.001073123190583       -0.001545111144239        0.233187180209025
        0.091917604407190        0.001127583925862       -0.001623255540346        0.238560281954021
        0.094336488733695        0.001180883231561       -0.001699689123118        0.243417198994388
        0.096755373060200        0.001231356875844       -0.001772019360590        0.247462307733567
        0.099174257386705        0.001280111705187       -0.001841837717819        0.250972032152213
        0.101593141713210        0.001324755122646       -0.001905705963042        0.253526860955836
        0.104012026039715        0.001367104675005       -0.001966238703369        0.255533195918292
        0.106430910366220        0.001404018147049       -0.002018922416093        0.256454632033193
        0.108849794692725        0.001438057883984       -0.002067443124931        0.256821185817583
        0.111268679019230        0.001465327229574       -0.002106206039903        0.255988470259509
        0.113687563345735        0.001489152054926       -0.002139994560808        0.254601772837720
        0.116106447672240        0.001504893903143       -0.002162151685608        0.251919409979388
        0.118525331998745        0.001516644282551       -0.002178560091250        0.248691748469776
        0.120944216325250        0.001519053705142       -0.002181545543007        0.244092093839507
        0.123363100651755        0.001516963884323       -0.002178066572976        0.238964012065885
        0.125781984978260        0.001504363468580       -0.002159502947469        0.232409482904645
        0.128200869304765        0.001486810818625       -0.002133839557400        0.225351886995371
        0.130619753631270        0.001457700134412       -0.002091607398762        0.216836737801801
        0.133038637957775        0.001423254526863       -0.002041741940396        0.207852548362037
        0.135457522284280        0.001376358826881       -0.001974047767650        0.197404153798174
        0.137876406610785        0.001323830833464       -0.001898309212948        0.186529446717820
        0.140295290937290        0.001258147735713       -0.001803750472389        0.174209037757216
        0.142714175263795        0.001186634370134       -0.001700878018621        0.161513620932829
        0.145133059590300        0.001101477218433       -0.001578503280526        0.147416427570073
        0.147551943916805        0.001010403902615       -0.001447704639167        0.133003810087176
        0.149970828243310        0.000905440495803       -0.001297067354437        0.117258575419160
        0.152389712569815        0.000794597949607       -0.001138070044499        0.101265298966180
        0.154808596896320        0.000669883380006       -0.000959274229872        0.084033144650345
        0.157227481222825        0.000539458207226       -0.000772368272690        0.066627463549820
        0.159646365549330        0.000395460656699       -0.000566104606517        0.048100104737877
        0.162065249875835        0.000246058531167       -0.000352175156364        0.029480019996190
        0.164484134202340        0.000083677036091       -0.000119746140329        0.009877347657478
        0.166903018528845       -0.000083662425058        0.000119705218920       -0.009731979449182
        0.169321902855350       -0.000263089018376        0.000376372148195       -0.030164910775171
        0.171740787181855       -0.000446886381852        0.000639218462687       -0.050514320303974
        0.174159671508360       -0.000641579804667        0.000917570713838       -0.071510842332831
        0.176578555834865       -0.000839919382674        0.001201063809777       -0.092330849240633
        0.178997440161370       -0.001047671943064        0.001497936842612       -0.113606693944992
        0.181416324487875       -0.001258214957966        0.001798724985285       -0.134611595506542
        0.183835208814380       -0.001476409153484        0.002110369149525       -0.155869287136338
        0.186254093140885       -0.001696416413035        0.002424528301513       -0.176761615213963
        0.188672977467390       -0.001922053904441        0.002746649184259       -0.197695145784088
        0.191091861793895       -0.002148417653414        0.003069727626051       -0.218170368558518
        0.193510746120400       -0.002378157119891        0.003397539461774       -0.238470058481557
        0.195929630446905       -0.002607441523323        0.003724615224802       -0.258221434400304
        0.198348514773410       -0.002837644728409        0.004052906619862       -0.277578880584562
        0.200767399099915       -0.003066134269146        0.004378656892393       -0.296302369563471
        0.203186283426420       -0.003292919516218        0.004701867842747       -0.314415387736834
        0.205605167752925       -0.003516674457433        0.005020649249649       -0.331814530294690
        0.208024052079430       -0.003735976503636        0.005332958190405       -0.348392005630716
        0.210442936405935       -0.003950894473013        0.005638896621984       -0.364182688634893
        0.212861820732440       -0.004158529896442        0.005934316042563       -0.378949257854661
        0.215280705058945       -0.004360412586494        0.006221404516094       -0.392864294793716
        0.217699589385450       -0.004552149555240        0.006493883504557       -0.405564792674750
        0.220118473711955       -0.004736773494901        0.006756086383516       -0.417358255778139
        0.222537358038460       -0.004908404858562        0.006999618325874       -0.427761868410135
        0.224956242364965       -0.005071595184755        0.007230980093961       -0.437213118598602
        0.227375126691470       -0.005219013789260        0.007439713646640       -0.445117193997681
        0.229794011017975       -0.005356719924419        0.007634470334137       -0.452034561925407
        0.232212895344480       -0.005475995030985        0.007802821707986       -0.457268035265643
        0.234631779670985       -0.005584367146018        0.007955512995251       -0.461492112279248
        0.237050663997490       -0.005671820808873        0.008078277536593       -0.463918507865149
        0.239469548323995       -0.005747285916711        0.008183857513399       -0.465325009557161
        0.241888432650500       -0.005799568139470        0.008256318542011       -0.464844984908201
        0.244307316977005       -0.005838904621634        0.008310263083161       -0.463347152386916
        0.246726201303510       -0.005853066070384        0.008328295950590       -0.459900551872670
        0.249145085630015       -0.005853475391212        0.008326704680307       -0.455451057446555
        0.251563969956520       -0.005827036398619        0.008286874047395       -0.449018444430667
        0.253982854283025       -0.005786210715699        0.008226564910577       -0.441610769802979
        0.256401738609530       -0.005717225272752        0.008126213313628       -0.432214407955121
        0.258820622936035       -0.005633409616792        0.008004807854255       -0.421883664978858
        0.261239507262540       -0.005520523027255        0.007842133737528       -0.409587922017171
        0.263658391589045       -0.005392570710508        0.007658131305412       -0.396411089251538
        0.266077275915550       -0.005235069588036        0.007432254844754       -0.381322240498453
        0.268496160242055       -0.005062489517690        0.007185094111775       -0.365417793767381
        0.270915044568560       -0.004860342846481        0.006896109339311       -0.347683208965183
        0.273333928895065       -0.004643337476732        0.006586215703359       -0.329210131159719
        0.275752813221570       -0.004397227540760        0.006235227662844       -0.309016836180543
        0.278171697548075       -0.004136720300400        0.005864045347267       -0.288173000725010
        0.280590581874580       -0.003848062417610        0.005453191258239       -0.265745616037031
        0.283009466201085       -0.003545713601124        0.005023199170149       -0.242765549542234
        0.285428350527590       -0.003216663777499        0.004555652848540       -0.218363619215983
        0.287847234854095       -0.002874874084848        0.004070363532328       -0.193515661419490
        0.290266119180600       -0.002508323924893        0.003550322596983       -0.167430399516123
        0.292685003507105       -0.002130225072661        0.003014263901078       -0.141013292021811
        0.295103887833610       -0.001729783539835        0.002446919580676       -0.113563786690753
        0.297522772160115       -0.001319215634959        0.001865598937469       -0.085902735518874
        0.299941656486620       -0.000889177537225        0.001257088573033       -0.057431664271184
        0.302360540813125       -0.000450653192536        0.000636940067236       -0.028873934042494
        0.304779425139630        0.000004045437819       -0.000005717324029        0.000257144295489
        0.307198309466135        0.000465389972181       -0.000657402658882        0.029347035307435
        0.309617193792640        0.000939229141949       -0.001326387135090        0.058762736173009
        0.312036078119145        0.001417695268187       -0.002001547100281        0.088008141463210
        0.314454962445650        0.001904640186597       -0.002688333993931        0.117324573848740
        0.316873846772155        0.002394039834973       -0.003378236156909        0.146342078884009
        0.319292731098660        0.002887620975841       -0.004073706620100        0.175172339033497
        0.321711615425165        0.003381359985590       -0.004769063228521        0.203577266102012
        0.324130499751670        0.003874762819719       -0.005463627796209        0.231537013451253
        0.326549384078175        0.004365933530909       -0.006154723281098        0.258948979165043
        0.328968268404680        0.004852096508028       -0.006838456900469        0.285662002038058
        0.331387152731185        0.005333578092487       -0.007515286346778        0.311710436044216
        0.333806037057690        0.005805297297080       -0.008178073096918        0.336814116561008
        0.336224921384195        0.006269862215537       -0.008830489830154        0.361143652662638
        0.338643805710700        0.006719901002641       -0.009462175331732        0.384294244159424
        0.341062690037205        0.007160325869566       -0.010080045539516        0.406569899400506
        0.343481574363710        0.007581527702906       -0.010670594832153        0.427447535000933
        0.345900458690215        0.007990706767549       -0.011243956914436        0.447359597920701
        0.348319343016720        0.008376109430020       -0.011783615366718        0.465672955318187
        0.350738227343225        0.008747168838641       -0.012302841496881        0.482941511147848
        0.353157111669730        0.009090118160888       -0.012782296121321        0.498432065807231
        0.355575995996235        0.009416529148095       -0.013238253314975        0.512811093546663
        0.357994880322740        0.009710790401891       -0.013648791701339        0.525256900128124
        0.360413764649245        0.009986479565984       -0.014032999545115        0.536537883969962
        0.362832648975750        0.010226344693258       -0.014366663515880        0.545756833631326
        0.365251533302255        0.010445799540107       -0.014671445620610        0.553771838952307
        0.367670417628760        0.010626188434961       -0.014921176667182        0.559624348196974
        0.370089301955265        0.010784556426909       -0.015139802893366        0.564248520250599
        0.372508186281770        0.010901110556762       -0.015299576484378        0.566639615129930
        0.374927070608275        0.010994289977744       -0.015426393054402        0.567793066649960
        0.377345954934780        0.011043456721586       -0.015491339027366        0.566673834421264
        0.379764839261285        0.011068177768192       -0.015521883795705        0.564322896616277
        0.382183723587790        0.011047283965828       -0.015488390254407        0.559691285441137
        0.384602607914295        0.011001178597272       -0.015419490655049        0.553849105366475
        0.387021492240800        0.010908491944222       -0.015285289094979        0.545750061342598
        0.389440376567305        0.010790151172870       -0.015115140618964        0.536476537399309
        0.391859260893810        0.010624928261354       -0.014879370382486        0.525001477157275
        0.394278145220315        0.010433945739332       -0.014607593845585        0.512402533473521
        0.396697029546820        0.010196465735889       -0.014270844452144        0.497688159699861
        0.399115913873325        0.009933466691157       -0.013898520775437        0.481914369337705
        0.401534798199830        0.009625049853885       -0.013462851159446        0.464140845821986
        0.403953682526335        0.009291704648561       -0.012992532881805        0.445385422013596
        0.406372566852840        0.008914715118828       -0.012461467078372        0.424773934029336
        0.408791451179345        0.008513736940148       -0.011897166325426        0.403270117833315
        0.411210335505850        0.008071569490817       -0.011275665647396        0.380079852686272
        0.413629219832355        0.007606695936409       -0.010622818772515        0.356097734391364
        0.416048104158860        0.007103746616421       -0.009917230998283        0.330622325619728
        0.418466988485365        0.006579705195760       -0.009182640565940        0.304465145721477
        0.420885872811870        0.006021326074188       -0.008400627086888        0.277028632522578
        0.423304757138375        0.005443783911938       -0.007592382270621        0.249028615973708
        0.425723641464880        0.004836222388044       -0.006742824515731        0.219980976783322
        0.428142525791385        0.004211720677278       -0.005870201320808        0.190494761301327
        0.430561410117890        0.003562044081697       -0.004963088076637        0.160207086908147
        0.432980294444395        0.002897918090910       -0.004036431067197        0.129610812269144
        0.435399178770900        0.002213924551993       -0.003082728543120        0.098470189280044
        0.437818063097405        0.001518210234785       -0.002113315957462        0.067154319620038
        0.440236947423910        0.000808327019210       -0.001124822614513        0.035558499402374
        0.442655831750415        0.000089655505485       -0.000124716898302        0.003922454497718
        0.445074716076920       -0.000637173740505        0.000886094824353       -0.027725614158196
        0.447493600403425       -0.001369692281793        0.001904208936486       -0.059278939913205
        0.449912484729930       -0.002104129768161        0.002924361786683       -0.090576634293106
        0.452331369056435       -0.002841031215686        0.003947349440966       -0.121646384994282
        0.454750253382940       -0.003573474927628        0.004963539146775       -0.152196907397455
        0.457169137709445       -0.004305073401271        0.005977995538002       -0.182389730380298
        0.459588022035950       -0.005025792764045        0.006976774922973       -0.211807502451397
        0.462006906362455       -0.005742317948007        0.007969211157060       -0.240742885293995
        0.464425790688960       -0.006441593187012        0.008937178227952       -0.268658759664612
        0.466844675015465       -0.007133330701819        0.009894210521782       -0.295974162388306
        0.469263559341970       -0.007801593767676        0.010818198128391       -0.322040376763246
        0.471682443668475       -0.008459026441407        0.011726737925765       -0.347396085758336
