#           time (fs)    |     mu_x (e.angstrom)   |     mu_y (e.angstrom)   |     mu_z (e.angstrom)   |
        0.000000000000000       -0.000000000000000       -0.000000000000000        0.000000000000000
        0.002418884326505       -0.000000001599014       -0.000000002683923        0.000036455229324
        0.004837768653010       -0.000000006393692       -0.000000010734620        0.000072905462322
        0.007256652979515       -0.000000014308544       -0.000000024021001        0.000108774336764
        0.009675537306020       -0.000000027480477       -0.000000046138053        0.000156707287643
        0.012094421632525       -0.000000044599117       -0.000000074875585        0.000203473899731
        0.014513305959030       -0.000000072105549       -0.000000121060855        0.000274175666607
        0.016932190285535       -0.000000105274124       -0.000000176743798        0.000343138130798
        0.019351074612040       -0.000000156892083       -0.000000263412347        0.000447516514903
        0.021769958938545       -0.000000216748535       -0.000000363901150        0.000549602984967
        0.024188843265050       -0.000000305827955       -0.000000513466747        0.000698010173189
        0.026607727591555       -0.000000406542517       -0.000000682552341        0.000843601342410
        0.029026611918060       -0.000000549671400       -0.000000922865304        0.001045666040007
        0.031445496244565       -0.000000708599828       -0.000001189686903        0.001244426950381
        0.033864380571070       -0.000000925189007       -0.000001553336926        0.001508898625981
        0.036283264897575       -0.000001162446261       -0.000001951666262        0.001769622452343
        0.038702149224080       -0.000001474242990       -0.000002475165776        0.002104230153071
        0.041121033550585       -0.000001812206758       -0.000003042573537        0.002434696425981
        0.043539917877090       -0.000002242747926       -0.000003765439680        0.002846024377372
        0.045958802203595       -0.000002705502884       -0.000004542362465        0.003252873868095
        0.048377686530100       -0.000003279519892       -0.000005506117908        0.003746255796748
        0.050796570856605       -0.000003892254880       -0.000006534846122        0.004234884012878
        0.053215455183110       -0.000004635043304       -0.000007781960757        0.004814317822730
        0.055634339509615       -0.000005423414609       -0.000009105569608        0.005388788758040
        0.058053223836120       -0.000006360182503       -0.000010678366396        0.006056872859477
        0.060472108162625       -0.000007349657201       -0.000012339613410        0.006719854311529
        0.062890992489130       -0.000008504866434       -0.000014279162496        0.007477746551221
        0.065309876815635       -0.000009720060206       -0.000016319375763        0.008230467970511
        0.067728761142140       -0.000011116775357       -0.000018664401319        0.009077867744733
        0.070147645468645       -0.000012580799374       -0.000021122382959        0.009920101215199
        0.072566529795150       -0.000014240058673       -0.000023908207009        0.010855254976252
        0.074985414121655       -0.000015973890004       -0.000026819176143        0.011785319554764
        0.077404298448160       -0.000017914112351       -0.000030076722974        0.012805049545007
        0.079823182774665       -0.000019936001961       -0.000033471321794        0.013819838813043
        0.082242067101170       -0.000022172443395       -0.000037226205385        0.014919594489993
        0.084660951427675       -0.000024497375036       -0.000041129590689        0.016014626800027
        0.087079835754180       -0.000027041647057       -0.000045401305992        0.017188558054998
        0.089498720080685       -0.000029680859440       -0.000049832346945        0.018358048593285
        0.091917604407190       -0.000032540520365       -0.000054633583780        0.019599099520897
        0.094336488733695       -0.000035501103695       -0.000059604184540        0.020836052963001
        0.096755373060200       -0.000038679332778       -0.000064940280454        0.022136074615141
        0.099174257386705       -0.000041963909326       -0.000070454843878        0.023432396826393
        0.101593141713210       -0.000045459271721       -0.000076323389517        0.024782277086995
        0.104012026039715       -0.000049065768384       -0.000082378435329        0.026128904022137
        0.106430910366220       -0.000052872077200       -0.000088769042829        0.027518712473156
        0.108849794692725       -0.000056793596213       -0.000095352990548        0.028905754162434
        0.111268679019230       -0.000060899875958       -0.000102247232149        0.030324899580850
        0.113687563345735       -0.000065124667900       -0.000109340355783        0.031741796858011
        0.116106447672240       -0.000069515221539       -0.000116711876414        0.033179194791973
        0.118525331998745       -0.000074026762750       -0.000124286434444        0.034614886226446
        0.120944216325250       -0.000078681342514       -0.000132101238501        0.036059133948879
        0.123363100651755       -0.000083458516896       -0.000140121779111        0.037502230292761
        0.125781984978260       -0.000088352596833       -0.000148338688050        0.038941786324842
        0.128200869304765       -0.000093369979885       -0.000156762526005        0.040380749677472
        0.130619753631270       -0.000098475126053       -0.000165333799881        0.041804115013877
        0.133038637957775       -0.000103703366889       -0.000174111657909        0.043227439844054
        0.135457522284280       -0.000108987699063       -0.000182983770562        0.044623337997447
        0.137876406610785       -0.000114393994125       -0.000192060574676        0.046019731146495
        0.140295290937290       -0.000119822730967       -0.000201175129051        0.047377284160248
        0.142714175263795       -0.000125371381233       -0.000210490944052        0.048735840978126
        0.145133059590300       -0.000130907459091       -0.000219785711149        0.050044738632897
        0.147551943916805       -0.000136560500791       -0.000229276799546        0.051355112473536
        0.149970828243310       -0.000142165254720       -0.000238686861823        0.052605772033593
        0.152389712569815       -0.000147883151995       -0.000248286846742        0.053858334453148
        0.154808596896320       -0.000153517046184       -0.000257745824486        0.055042048459886
        0.157227481222825       -0.000159259432743       -0.000267386934841        0.056228037620418
        0.159646365549330       -0.000164882826404       -0.000276828272080        0.057337107440586
        0.162065249875835       -0.000170609282090       -0.000286442646358        0.058448762419022
        0.164484134202340       -0.000176183215993       -0.000295800931431        0.059476615490260
        0.166903018528845       -0.000181854063314       -0.000305321954980        0.060507294424881
        0.169321902855350       -0.000187341051533       -0.000314534249867        0.061448583407304
        0.171740787181855       -0.000192918156604       -0.000323897899602        0.062392863677629
        0.174159671508360       -0.000198282967748       -0.000332905051593        0.063243546012979
        0.176578555834865       -0.000203730529814       -0.000342051221523        0.064097304939314
        0.178997440161370       -0.000208940942003       -0.000350799130820        0.064854701633806
        0.181416324487875       -0.000214226255699       -0.000359672911796        0.065615176495198
        0.183835208814380       -0.000219253769850       -0.000368113729109        0.066278009273635
        0.186254093140885       -0.000224347944678       -0.000376666616756        0.066943835772501
        0.188672977467390       -0.000229168441252       -0.000384759845971        0.067512242094065
        0.191091861793895       -0.000234047063351       -0.000392950851722        0.068083470737093
        0.193510746120400       -0.000238641388590       -0.000400664334199        0.068558996512268
        0.195929630446905       -0.000243285110781       -0.000408460975913        0.069037086724912
        0.198348514773410       -0.000247639579640       -0.000415771734902        0.069422656922577
        0.200767399099915       -0.000252034626887       -0.000423150885471        0.069810449063278
        0.203186283426420       -0.000256141431252       -0.000430045811522        0.070110316741917
        0.205605167752925       -0.000260280010109       -0.000436994386288        0.070411982526615
        0.208024052079430       -0.000264137522561       -0.000443470747263        0.070631657158461
        0.210442936405935       -0.000268018124842       -0.000449986213833        0.070852629340775
        0.212861820732440       -0.000271631090036       -0.000456051976250        0.070998785617496
        0.215280705058945       -0.000275258682781       -0.000462142673430        0.071145668090201
        0.217699589385450       -0.000278638290557       -0.000467816625215        0.071226036698666
        0.220118473711955       -0.000282024386417       -0.000473501881162        0.071306496482814
        0.222537358038460       -0.000285188222877       -0.000478813549518        0.071329738615084
        0.224956242364965       -0.000288350827181       -0.000484123592869        0.071352381479967
        0.227375126691470       -0.000291322702216       -0.000489112954708        0.071327949088878
        0.229794011017975       -0.000294286135254       -0.000494088616204        0.071302180794943
        0.232212895344480       -0.000297095787318       -0.000498805602467        0.071240164821854
        0.234631779670985       -0.000299890382681       -0.000503497808494        0.071176040195846
        0.237050663997490       -0.000302573063894       -0.000508001607545        0.071087009177247
        0.239469548323995       -0.000305234746033       -0.000512470670901        0.070995071411326
        0.241888432650500       -0.000307830692999       -0.000516828840042        0.070889903013336
        0.244307316977005       -0.000310400439485       -0.000521143557121        0.070781015724834
        0.246726201303510       -0.000312954237422       -0.000525430954972        0.070670723857214
        0.249145085630015       -0.000315477433585       -0.000529667522277        0.070555898551142
        0.251563969956520       -0.000318037283466       -0.000533965078310        0.070451458773784
        0.253982854283025       -0.000320562979242       -0.000538205844784        0.070341680414457
        0.256401738609530       -0.000323179879615       -0.000542599185599        0.070253856368551
        0.258820622936035       -0.000325759960380       -0.000546931260544        0.070159909789017
        0.261239507262540       -0.000328486817278       -0.000551509215419        0.070099083361942
        0.263658391589045       -0.000331175102229       -0.000556022954790        0.070031383219836
        0.266077275915550       -0.000334065782172       -0.000560875965659        0.070007391087770
        0.268496160242055       -0.000336917065384       -0.000565663362104        0.069975818014149
        0.270915044568560       -0.000340025407719       -0.000570881825284        0.069997797100247
        0.273333928895065       -0.000343094458284       -0.000576034829510        0.070011542584843
        0.275752813221570       -0.000346473264175       -0.000581707398202        0.070087786825417
        0.278171697548075       -0.000349813802884       -0.000587316200941        0.070155209239072
        0.280590581874580       -0.000353513818938       -0.000593528078734        0.070293039867645
        0.283009466201085       -0.000357177489649       -0.000599679383806        0.070421533842798
        0.285428350527590       -0.000361246404581       -0.000606510640078        0.070627185185033
        0.287847234854095       -0.000365281758841       -0.000613285959690        0.070823066360620
        0.290266119180600       -0.000369763231647       -0.000620809897890        0.071101588885332
        0.292685003507105       -0.000374214745165       -0.000628283901436        0.071369995776891
        0.295103887833610       -0.000379147482982       -0.000636565510810        0.071725177873544
        0.297522772160115       -0.000384054622319       -0.000644804457952        0.072069992356392
        0.299941656486620       -0.000389471525567       -0.000653898978221        0.072504302012012
        0.302360540813125       -0.000394867882742       -0.000662959266019        0.072928089609522
        0.304779425139630       -0.000400795274188       -0.000672910892965        0.073442636842549
        0.307198309466135       -0.000406707786008       -0.000682837745233        0.073946607697544
        0.309617193792640       -0.000413164739151       -0.000693678503050        0.074541128277893
        0.312036078119145       -0.000419613006772       -0.000704504827994        0.075125119358024
        0.314454962445650       -0.000426610787400       -0.000716253631654        0.075797980006876
        0.316873846772155       -0.000433606510087       -0.000727999071237        0.076460458759888
        0.319292731098660       -0.000441148143047       -0.000740660999078        0.077208683684827
        0.321711615425165       -0.000448694678272       -0.000753331190486        0.077946773022291
        0.324130499751670       -0.000456774649409       -0.000766896983767        0.078766091308945
        0.326549384078175       -0.000464866709342       -0.000780483049872        0.079575615462842
        0.328968268404680       -0.000473470810343       -0.000794928852250        0.080460528518535
        0.331387152731185       -0.000482094302537       -0.000809407134139        0.081336078989391
        0.333806037057690       -0.000491199623941       -0.000824694479942        0.082279946922766
        0.336224921384195       -0.000500331641538       -0.000840026520485        0.083214967426184
        0.338643805710700       -0.000509906716674       -0.000856102576363        0.084210112954254
        0.341062690037205       -0.000519515680926       -0.000872235359491        0.085197001979636
        0.343481574363710       -0.000529520780856       -0.000889033419636        0.086234830185032
        0.345900458690215       -0.000539566736088       -0.000905899865553        0.087265059510580
        0.348319343016720       -0.000549954313022       -0.000923340096193        0.088336191530945
        0.350738227343225       -0.000560389371503       -0.000940859808252        0.089400438797112
        0.353157111669730       -0.000571104645490       -0.000958850232706        0.090494857319415
        0.355575995996235       -0.000581873577017       -0.000976930487251        0.091583150552201
        0.357994880322740       -0.000592855258129       -0.000995368198487        0.092690354810376
        0.360413764649245       -0.000603896216538       -0.001013905164558        0.093792226609643
        0.362832648975750       -0.000615077352322       -0.001032677748077        0.094901394446776
        0.365251533302255       -0.000626322728644       -0.001051557919753        0.096006043415471
        0.367670417628760       -0.000637631664283       -0.001070545065710        0.097106197873706
        0.370089301955265       -0.000649009053967       -0.001089646885938        0.098202654763338
        0.372508186281770       -0.000660370490480       -0.001108722165879        0.099282832606940
        0.374927070608275       -0.000671803759934       -0.001127917817044        0.100360128594286
        0.377345954934780       -0.000683139893866       -0.001146950597471        0.101409548154461
        0.379764839261285       -0.000694550329688       -0.001166107930802        0.102456882644326
        0.382183723587790       -0.000705782056126       -0.001184965393046        0.103465108397230
        0.384602607914295       -0.000717089578771       -0.001203949966183        0.104472013766849
        0.387021492240800       -0.000728137738180       -0.001222499199883        0.105429115121727
        0.389440376567305       -0.000739262160462       -0.001241176389723        0.106385615883027
        0.391859260893810       -0.000750048808876       -0.001259286525500        0.107282317757368
        0.394278145220315       -0.000760911118692       -0.001277523681706        0.108179081711159
        0.396697029546820       -0.000771360800103       -0.001295068027527        0.109006904609366
        0.399115913873325       -0.000781884446096       -0.001312736630975        0.109835383701251
        0.401534798199830       -0.000791925445580       -0.001329594776187        0.110586771185700
        0.403953682526335       -0.000802037604142       -0.001346572566071        0.111339329942547
        0.406372566852840       -0.000811603160324       -0.001362632417167        0.112007761589469
        0.408791451179345       -0.000821235962366       -0.001378805450572        0.112677791215656
        0.411210335505850       -0.000830265418246       -0.001393965163445        0.113257879379588
        0.413629219832355       -0.000839357114574       -0.001409229771840        0.113839895820385
        0.416048104158860       -0.000847796986466       -0.001423399546575        0.114327464786121
        0.418466988485365       -0.000856293031365       -0.001437664154993        0.114817189317999
        0.420885872811870       -0.000864097976872       -0.001450767861120        0.115209335694062
        0.423304757138375       -0.000871952010600       -0.001463954637617        0.115603756874229
        0.425723641464880       -0.000879085677940       -0.001475931240153        0.115898890372667
        0.428142525791385       -0.000886260390274       -0.001487977545577        0.116196306468679
        0.430561410117890       -0.000892696133063       -0.001498782305177        0.116394170517841
        0.432980294444395       -0.000899163991799       -0.001509641916211        0.116594211838283
        0.435399178770900       -0.000904885435414       -0.001519247340106        0.116695883783839
        0.437818063097405       -0.000910629265753       -0.001528891421970        0.116799514638252
        0.440236947423910       -0.000915630713691       -0.001537287946258        0.116807385598270
        0.442655831750415       -0.000920644116734       -0.001545705755301        0.116816885924210
        0.445074716076920       -0.000924930787886       -0.001552902143345        0.116734620672200
        0.447493600403425       -0.000929218388972       -0.001560101443970        0.116653547674993
        0.449912484729930       -0.000932806479418       -0.001566124890147        0.116486025225806
        0.452331369056435       -0.000936383999736       -0.001572132075043        0.116319155677674
        0.454750253382940       -0.000939300565473       -0.001577028007852        0.116072391540761
        0.457169137709445       -0.000942194713207       -0.001581887915235        0.115825645676175
        0.459588022035950       -0.000944477373153       -0.001585719498625        0.115506697014699
        0.462006906362455       -0.000946725553335       -0.001589494925137        0.115187045233937
        0.464425790688960       -0.000948422014881       -0.001592342261899        0.114803900422670
        0.466844675015465       -0.000950071860123       -0.001595113174773        0.114419254271528
        0.469263559341970       -0.000951239272479       -0.001597072220784        0.113980708577716
        0.471682443668475       -0.000952347999702       -0.001598934677901        0.113539797704542
