#           time (fs)       | force (atom_1) (H/b)   |  force (atom_2) (H/b)  |           ...          |  force (atom_N) (H/b)  |
        0.000000000000000       -0.000000000000000       -0.000000000000000       -0.001977038000788       -0.000000000000000       -0.000000000000000        0.001977038000788
        0.120944216325250       -0.000097805399705       -0.000007555341549       -0.006447068125616        0.000097805402996        0.000007555341549        0.006447068128907
        0.241888432650500       -0.000280163566958       -0.000026413556771       -0.011242271402240        0.000280163555578        0.000026413556771        0.011242271390860
        0.362832648975750       -0.000416771438215       -0.000057147296353       -0.016033280136866        0.000416771452746        0.000057147296353        0.016033280151397
        0.483776865301000       -0.000484100937931       -0.000098877293940       -0.020499519487094        0.000484100930695        0.000098877293940        0.020499519479858
        0.604721081626250       -0.000569861850971       -0.000149603398906       -0.024500113595079        0.000569861851335        0.000149603398906        0.024500113595443
        0.725665297951500       -0.000749141942956       -0.000207577948767       -0.028083301041389        0.000749141947786        0.000207577948767        0.028083301046219
        0.846609514276750       -0.001006843815261       -0.000272812217701       -0.031430849751945        0.001006843790748        0.000272812217701        0.031430849727432
        0.967553730602000       -0.001289984584203       -0.000346856048943       -0.034738892478982        0.001289984634632        0.000346856048943        0.034738892529412
        1.088497946927250       -0.001590469187386       -0.000429846873921       -0.038014261127863        0.001590469138628        0.000429846873921        0.038014261079104
        1.209442163252500       -0.001934606769340       -0.000517310085439       -0.040946529986903        0.001934606782175        0.000517310085439        0.040946529999739
        1.330386379577750       -0.002304050847471       -0.000601202799860       -0.043076836576198        0.002304050879600        0.000601202799860        0.043076836608327
        1.451330595903000       -0.002615829907551       -0.000674273273941       -0.044099414493653        0.002615829839462        0.000674273273941        0.044099414425564
        1.572274812228250       -0.002817631528012       -0.000736605913014       -0.044236207556836        0.002817631611514        0.000736605913014        0.044236207640339
        1.693219028553500       -0.002959839417005       -0.000792559638771       -0.043952543147717        0.002959839351528        0.000792559638771        0.043952543082239
        1.814163244878750       -0.003147119767150       -0.000844298959637       -0.043542978065304        0.003147119788997        0.000844298959637        0.043542978087151
        1.935107461204000       -0.003397722011193       -0.000885525081089       -0.042787298741866        0.003397722033872        0.000885525081089        0.042787298764545
        2.056051677529250       -0.003589008652671       -0.000904454676297       -0.041160047754630        0.003589008601533        0.000904454676297        0.041160047703493
        2.176995893854500       -0.003578179666065       -0.000895501443176       -0.038458006749334        0.003578179717519        0.000895501443176        0.038458006800788
        2.297940110179750       -0.003352375648466       -0.000861590909795       -0.034934714150526        0.003352375625274        0.000861590909795        0.034934714127334
        2.418884326505000       -0.003066311018220       -0.000812978586993       -0.031205421920266        0.003066311014613        0.000812978586993        0.031205421916658
        2.539828542830250       -0.002875649665432       -0.000755321044705       -0.027637345380217        0.002875649653881        0.000755321044705        0.027637345368666
        2.660772759155500       -0.002771061068120       -0.000687254944903       -0.024170583975202        0.002771061141880        0.000687254944903        0.024170584048962
        2.781716975480750       -0.002576622867655       -0.000602290774149       -0.020435403013923        0.002576622720090        0.000602290774149        0.020435402866357
        2.902661191806000       -0.002141070177265       -0.000496077343143       -0.016181744971143        0.002141070352892        0.000496077343143        0.016181745146770
        3.023605408131250       -0.001497597056580       -0.000367879630591       -0.011458315270349        0.001497596938385        0.000367879630591        0.011458315152154
        3.144549624456500       -0.000835339097787       -0.000224512608690       -0.006662426530789        0.000835339066729        0.000224512608690        0.006662426499731
        3.265493840781750       -0.000274098161826       -0.000072227161057       -0.002074413257681        0.000274098398379        0.000072227161057        0.002074413494233
        3.386438057107000        0.000228418403184        0.000079107404457        0.002125347772089       -0.000228418830061       -0.000079107404457       -0.002125348198965
        3.507382273432250        0.000786659204939        0.000224328697678        0.005969809433495       -0.000786658708810       -0.000224328697678       -0.005969808937365
        3.628326489757500        0.001387633955066        0.000363089787607        0.009482937002972       -0.001387634311240       -0.000363089787607       -0.009482937359146
        3.749270706082750        0.001878021422123        0.000497058356946        0.012586337368438       -0.001878021417672       -0.000497058356946       -0.012586337363987
        3.870214922408000        0.002200127694963        0.000633096690496        0.015395340314203       -0.002200127236254       -0.000633096690496       -0.015395339855494
        3.991159138733250        0.002485944153167        0.000765397534157        0.017937082200916       -0.002485945016275       -0.000765397534157       -0.017937083064024
        4.112103355058500        0.002948806724009        0.000887339753947        0.020316603530153       -0.002948805715709       -0.000887339753947       -0.020316602521853
        4.233047571383750        0.003606244719180        0.001001127315417        0.022623263214515       -0.003606245483458       -0.001001127315417       -0.022623263978793
        4.353991787709000        0.004204113780890        0.001112966516771        0.024740105110344       -0.004204113633970       -0.001112966516771       -0.024740104963424
        4.474936004034250        0.004583122013523        0.001243898721352        0.026895643572115       -0.004583121380197       -0.001243898721352       -0.026895642938789
        4.595880220359500        0.004800485789762        0.001376761643691        0.028825939303372       -0.004800487039203       -0.001376761643691       -0.028825940552813
        4.716824436684750        0.005144446490535        0.001493532887037        0.030517187766899       -0.005144445073631       -0.001493532887037       -0.030517186349996
        4.837768653010000        0.005690167275758        0.001578857020241        0.031817727690533       -0.005690168336290       -0.001578857020241       -0.031817728751065
        4.958712869335250        0.006202703709402        0.001645824465798        0.032747622830800       -0.006202703389643       -0.001645824465798       -0.032747622511041
        5.079657085660500        0.006472815782016        0.001730031903946        0.033681550378265       -0.006472815267053       -0.001730031903946       -0.033681549863302
        5.200601301985750        0.006499727575494        0.001815450155567        0.034353682123612       -0.006499728706112       -0.001815450155567       -0.034353683254231
        5.321545518311000        0.006582187208094        0.001875494679818        0.034664787386852       -0.006582185884917       -0.001875494679818       -0.034664786063675
        5.442489734636251        0.006848488751350        0.001890082132896        0.034477897786613       -0.006848489810020       -0.001890082132896       -0.034477898845283
        5.563433950961501        0.007098470875723        0.001880473291718        0.033943193835837       -0.007098470441404       -0.001880473291718       -0.033943193401519
        5.684378167286750        0.007124332327641        0.001897899579283        0.033589773689684       -0.007124331973830       -0.001897899579283       -0.033589773335873
        5.805322383612000        0.006859931134948        0.001919335955667        0.033009663309809       -0.006859932195782       -0.001919335955667       -0.033009664370643
        5.926266599937250        0.006602887436130        0.001909200862228        0.032021868363889       -0.006602885982642       -0.001909200862228       -0.032021866910400
        6.047210816262500        0.006529407593630        0.001839747746362        0.030469157512683       -0.006529408936843       -0.001839747746362       -0.030469158855896
        6.168155032587750        0.006494705251542        0.001735801583277        0.028573033160479       -0.006494704549243       -0.001735801583277       -0.028573032458180
        6.289099248913001        0.006317864100496        0.001669462376755        0.027075774577733       -0.006317863838185       -0.001669462376755       -0.027075774315422
        6.410043465238251        0.005846341638891        0.001626035808202        0.025611533195132       -0.005846342808710       -0.001626035808202       -0.025611534364952
        6.530987681563500        0.005386644748639        0.001589072291875        0.024270432058072       -0.005386643092704       -0.001589072291875       -0.024270430402137
        6.651931897888750        0.005108691210521        0.001505540895246        0.022599558747859       -0.005108692715993       -0.001505540895246       -0.022599560253330
        6.772876114214000        0.004982735400177        0.001381390886121        0.020671774445182       -0.004982734588324       -0.001381390886121       -0.020671773633329
        6.893820330539250        0.004803541392729        0.001258131050360        0.018771843995973       -0.004803541329340       -0.001258131050360       -0.018771843932584
        7.014764546864500        0.004349307631255        0.001136129470989        0.016678948572147       -0.004349308284347       -0.001136129470989       -0.016678949225239
        7.135708763189751        0.003798530160839        0.001028410176205        0.014706679177035       -0.003798529464448       -0.001028410176205       -0.014706678480644
        7.256652979515001        0.003217786783427        0.000887269201743        0.012414874635483       -0.003217787094071       -0.000887269201743       -0.012414874946127
        7.377597195840250        0.002639925971138        0.000709669818475        0.009827810952385       -0.002639926054497       -0.000709669818475       -0.009827811035744
        7.498541412165500        0.001815861092828        0.000475314420987        0.006519213194024       -0.001815861052606       -0.000475314420987       -0.006519213153801
        7.619485628490750        0.000635270803777        0.000188654627909        0.002458750031247       -0.000635270191968       -0.000188654627909       -0.002458749419438
        7.740429844816000       -0.000830036729391       -0.000153807251216       -0.002281934034868        0.000830035116527        0.000153807251216        0.002281932422005
        7.861374061141250       -0.002295682346966       -0.000524200407083       -0.007127364418731        0.002295684692026        0.000524200407083        0.007127366763792
        7.982318277466501       -0.003653027121976       -0.000907203287652       -0.011816168701247        0.003653025006563        0.000907203287652        0.011816166585834
        8.103262493791750       -0.004779767504685       -0.001240753401736       -0.015676840231257        0.004779768132896        0.001240753401736        0.015676840859468
        8.224206710117000       -0.005837791541958       -0.001536779555539       -0.019008802438440        0.005837793325300        0.001536779555539        0.019008804221782
        8.345150926442249       -0.006767835855262       -0.001782842694125       -0.021675928709864        0.006767831647739        0.001782842694125        0.021675924502342
        8.466095142767500       -0.007770332964485       -0.002050833878402       -0.024499120510752        0.007770338453725        0.002050833878402        0.024499125999992
        8.587039359092751       -0.008947312721488       -0.002365745046450       -0.027768922509685        0.008947307973107        0.002365745046450        0.027768917761304
        8.707983575418000       -0.010404751192608       -0.002730672037913       -0.031590867826932        0.010404753060187        0.002730672037913        0.031590869694511
        8.828927791743251       -0.011986941731860       -0.003096867400970       -0.035415509093178        0.011986943992975        0.003096867400970        0.035415511354293
        8.949872008068500       -0.013189615245179       -0.003365738738859       -0.038015533999373        0.013189609204468        0.003365738738859        0.038015527958662
        9.070816224393750       -0.013810135804280       -0.003527023688017       -0.039173653661758        0.013810143660711        0.003527023688017        0.039173661518189
        9.191760440718999       -0.013887429970178       -0.003589123195800       -0.039049996603469        0.013887423164458        0.003589123195800        0.039049989797748
        9.312704657044250       -0.014031999499360       -0.003658100471356       -0.039035006190104        0.014032002653666        0.003658100471356        0.039035009344410
        9.433648873369501       -0.014486504099681       -0.003750536471815       -0.039479596854511        0.014486505821950        0.003750536471815        0.039479598576780
        9.554593089694750       -0.015064016743552       -0.003834114805848       -0.039976509186562        0.015064010844033        0.003834114805848        0.039976503287042
        9.675537306020001       -0.015166735857917       -0.003818410938239       -0.039360933175631        0.015166743605794        0.003818410938239        0.039360940923507
        9.796481522345250       -0.014451957004063       -0.003656340560190       -0.037047246926562        0.014451950331005        0.003656340560190        0.037047240253504
        9.917425738670500       -0.013229680426879       -0.003400438759913       -0.033728524431418        0.013229683774233        0.003400438759913        0.033728527778773
       10.038369954995749       -0.012021783875863       -0.003120241284921       -0.030374426022767        0.012021784505514        0.003120241284921        0.030374426652418
       10.159314171321000       -0.011224363712160       -0.002887740040996       -0.027800676096252        0.011224360173850        0.002887740040996        0.027800672557941
       10.280258387646251       -0.010539286925212       -0.002661088989392       -0.025450768101076        0.010539291283656        0.002661088989392        0.025450772459520
       10.401202603971500       -0.009630520314589       -0.002411035519177       -0.022822679682207        0.009630517073534        0.002411035519177        0.022822676441152
       10.522146820296751       -0.008093614237092       -0.002048075306011       -0.019039077040555        0.008093615547598        0.002048075306011        0.019039078351060
       10.643091036622000       -0.006220445742112       -0.001610056910335       -0.014627317170712        0.006220445732600        0.001610056910335        0.014627317161200
       10.764035252947250       -0.004137931476720       -0.001089475147727       -0.009697570620817        0.004137931703460        0.001089475147727        0.009697570847558
       10.884979469272501       -0.002224214498254       -0.000587407440626       -0.005154675506426        0.002224212736015        0.000587407440626        0.005154673744187
       11.005923685597750       -0.000437963710603       -0.000124305502433       -0.001044396885347        0.000437967068532        0.000124305502433        0.001044400243276
       11.126867901923001        0.001120515503669        0.000268325056483        0.002401006926628       -0.001120518864701       -0.000268325056483       -0.002401010287660
       11.247812118248250        0.002362803605101        0.000602318319593        0.005175249254805       -0.002362802803033       -0.000602318319593       -0.005175248452737
       11.368756334573501        0.003344868624397        0.000916800680988        0.007534641324073       -0.003344864737095       -0.000916800680988       -0.007534637436771
       11.489700550898750        0.004206755757052        0.001211966378929        0.009628908308193       -0.004206764604820       -0.001211966378929       -0.009628917155961
       11.610644767224001        0.005196767448300        0.001482239276920        0.011690075981930       -0.005196755949449       -0.001482239276920       -0.011690064483079
       11.731588983549251        0.006503741802375        0.001757850346056        0.014045791848103       -0.006503751617829       -0.001757850346056       -0.014045801663557
       11.852533199874500        0.007770752867932        0.002014752780108        0.016238620047982       -0.007770749483387       -0.002014752780108       -0.016238616663438
       11.973477416199751        0.009139626153876        0.002372007644401        0.018907258614166       -0.009139620156831       -0.002372007644401       -0.018907252617121
       12.094421632525000        0.010271853732140        0.002737313416032        0.021317357768989       -0.010271868557565       -0.002737313416032       -0.021317372594413
       12.215365848850251        0.011570658392365        0.003122852256157        0.023920379455899       -0.011570639187821       -0.003122852256157       -0.023920360251355
       12.336310065175500        0.012863950909356        0.003418737889809        0.026115378457242       -0.012863967536872       -0.003418737889809       -0.026115395084759
       12.457254281500751        0.014005832044163        0.003632878505796        0.027808859114071       -0.014005824810657       -0.003632878505796       -0.027808851880565
       12.578198497826001        0.014963005761088        0.003855067403491        0.029321405687596       -0.014962999835797       -0.003855067403491       -0.029321399762305
       12.699142714151250        0.015531535926334        0.004053662227886        0.030332306920569       -0.015531553881113       -0.004053662227886       -0.030332324875348
       12.820086930476501        0.016020185582452        0.004224641977056        0.031141489452923       -0.016020161550350       -0.004224641977056       -0.031141465420822
       12.941031146801750        0.016429701026847        0.004297776488683        0.031509410239740       -0.016429722490016       -0.004297776488683       -0.031509431702909
       13.061975363127001        0.016644398013758        0.004287917674613        0.031391944524023       -0.016644387125136       -0.004287917674613       -0.031391933635401
       13.182919579452250        0.016745873042755        0.004316575580386        0.031297051339192       -0.016745869184188       -0.004316575580386       -0.031297047480624
       13.303863795777501        0.016406919020582        0.004311547907861        0.030650706304529       -0.016406936275772       -0.004311547907861       -0.030650723559719
       13.424808012102751        0.015823644440900        0.004219861033281        0.029483885013851       -0.015823620138411       -0.004219861033281       -0.029483860711362
