#           time (fs)    |     mu_x (e.angstrom)   |     mu_y (e.angstrom)   |     mu_z (e.angstrom)   |
        0.000000000000000       -0.000000000000000       -0.000000000000000        0.000000000000000
        0.002418884326505       -0.000000001841762        0.000000004875930        0.000066093729924
        0.004837768653010       -0.000000029776371        0.000000078834839        0.000534279999985
        0.007256652979515       -0.000000083720754        0.000000221656152        0.001001444165097
        0.009675537306020       -0.000000212292509        0.000000562058982        0.001904484433803
        0.012094421632525       -0.000000390610848        0.000001034170458        0.002803269977343
        0.014513305959030       -0.000000695997580        0.000001842703860        0.004162311642534
        0.016932190285535       -0.000001075231693        0.000002846758848        0.005511502506804
        0.019351074612040       -0.000001635523389        0.000004330176243        0.007335339074591
        0.021769958938545       -0.000002293022452        0.000006070973076        0.009141281430334
        0.024188843265050       -0.000003184642184        0.000008431626849        0.011425872144346
        0.026607727591555       -0.000004194958970        0.000011106578413        0.013682063306673
        0.029026611918060       -0.000005489013754        0.000014532772841        0.016410321592345
        0.031445496244565       -0.000006920265927        0.000018322290275        0.019097270055229
        0.033864380571070       -0.000008678935382        0.000022978741242        0.022239128269658
        0.036283264897575       -0.000010589240141        0.000028036818233        0.025324490488084
        0.038702149224080       -0.000012862311466        0.000034055505901        0.028837242461107
        0.041121033550585       -0.000015296401407        0.000040500787112        0.032276235941175
        0.043539917877090       -0.000018118056814        0.000047972479380        0.036105152668377
        0.045958802203595       -0.000021104181389        0.000055880085384        0.039841238838624
        0.048377686530100       -0.000024490138688        0.000064846793825        0.043920446696500
        0.050796570856605       -0.000028037349255        0.000074241156281        0.047886271180895
        0.053215455183110       -0.000031982448127        0.000084689763166        0.052139876422997
        0.055634339509615       -0.000036078355534        0.000095538699013        0.056258448948373
        0.058053223836120       -0.000040554671413        0.000107395965384        0.060601887218135
        0.060472108162625       -0.000045163753772        0.000119606188821        0.064787978651546
        0.062890992489130       -0.000050119308673        0.000132735320746        0.069129563965459
        0.065309876815635       -0.000055181833918        0.000146149558228        0.073291294012139
        0.067728761142140       -0.000060539959440        0.000160348472762        0.077533938208928
        0.070147645468645       -0.000065971572856        0.000174744310342        0.081574524159284
        0.072566529795150       -0.000071630965476        0.000189745705478        0.085617595186442
        0.074985414121655       -0.000077322977102        0.000204836260672        0.089437229759512
        0.077404298448160       -0.000083158470086        0.000220309555558        0.093178515320666
        0.079823182774665       -0.000088978861120        0.000235746028070        0.096676340030493
        0.082242067101170       -0.000094842921340        0.000251301201382        0.100014081936731
        0.084660951427675       -0.000100638072646        0.000266677318799        0.103090221383980
        0.087079835754180       -0.000106363014438        0.000281870634539        0.105925185301490
        0.089498720080685       -0.000111960144209        0.000296728970347        0.108482807225276
        0.091917604407190       -0.000117361036387        0.000311070541146        0.110720352248575
        0.094336488733695       -0.000122571318025        0.000324910642876        0.112667717930896
        0.096755373060200       -0.000127449544259        0.000337873740845        0.114219830415660
        0.099174257386705       -0.000132071859675        0.000350161965454        0.115472300013482
        0.101593141713210       -0.000136219276793        0.000361193949429        0.116259556298377
        0.104012026039715       -0.000140044544720        0.000371374860910        0.116741513837079
        0.106430910366220       -0.000143248168110        0.000379909546526        0.116694936850410
        0.108849794692725       -0.000146064171657        0.000387418687535        0.116341599958176
        0.111268679019230       -0.000148111302083        0.000392889943333        0.115404375284905
        0.113687563345735       -0.000149707924987        0.000397167748793        0.114163455352602
        0.116106447672240       -0.000150391616888        0.000399024058524        0.112292473229941
        0.118525331998745       -0.000150566383915        0.000399530636104        0.110125652667545
        0.120944216325250       -0.000149691142181        0.000397250326034        0.107292843724325
        0.123363100651755       -0.000148254946447        0.000393480787837        0.104177038507771
        0.125781984978260       -0.000145642527105        0.000386587580217        0.100370473025460
        0.128200869304765       -0.000142425416146        0.000378087574280        0.096298850948230
        0.130619753631270       -0.000137920596982        0.000366166096783        0.091523574153157
        0.133038637957775       -0.000132777480932        0.000352547158504        0.086506302255209
        0.135457522284280       -0.000126253661447        0.000335258016699        0.080784881769605
        0.137876406610785       -0.000119069801173        0.000316212341759        0.074849580403878
        0.140295290937290       -0.000110434287968        0.000293306350143        0.068222346543716
        0.142714175263795       -0.000101130419111        0.000268620583817        0.061414232478003
        0.145133059590300       -0.000090329253308        0.000239951752285        0.053939197564483
        0.147551943916805       -0.000078866204287        0.000209519397023        0.046320904339527
        0.149970828243310       -0.000065888392288        0.000175056285080        0.038073353476286
        0.152389712569815       -0.000052271060574        0.000138888349345        0.029724423796975
        0.154808596896320       -0.000037152078380        0.000098723429950        0.020796176458981
        0.157227481222825       -0.000021432639914        0.000056956976252        0.011812228451998
        0.159646365549330       -0.000004257094247        0.000011313693924        0.002310577466044
        0.162065249875835        0.000013462664711       -0.000035782008723       -0.007197846098440
        0.164484134202340        0.000032559318554       -0.000086544747003       -0.017151504343101
        0.166903018528845        0.000052126639947       -0.000138564703747       -0.027060387621542
        0.169321902855350        0.000072957403784       -0.000193950804141       -0.037332210941228
        0.171740787181855        0.000094168238874       -0.000250353581668       -0.047505794430222
        0.174159671508360        0.000116494959139       -0.000309730937862       -0.057951413467792
        0.176578555834865        0.000139094741914       -0.000369840864886       -0.068244172341693
        0.178997440161370        0.000162629613830       -0.000432445495297       -0.078710837459953
        0.181416324487875        0.000186315152929       -0.000495457815663       -0.088969674903046
        0.183835208814380        0.000210723352303       -0.000560400961460       -0.099298594380242
        0.186254093140885        0.000235145844027       -0.000625389915932       -0.109365212077524
        0.188672977467390        0.000260049274008       -0.000691668036723       -0.119394041402686
        0.191091861793895        0.000284818415892       -0.000757597791836       -0.129107446598277
        0.193510746120400        0.000309800533378       -0.000824105341519       -0.138672886586912
        0.195929630446905        0.000334489695836       -0.000889843633288       -0.147871993470196
        0.198348514773410        0.000359101360927       -0.000955388451800       -0.156812453906610
        0.200767399099915        0.000383253753929       -0.001019722768786       -0.165338736418210
        0.203186283426420        0.000407020026112       -0.001083043885847       -0.173497021818924
        0.205605167752925        0.000430155778900       -0.001144699979313       -0.181197175099871
        0.208024052079430        0.000452583565619       -0.001204487592538       -0.188423149780661
        0.210442936405935        0.000474207619979       -0.001262150069360       -0.195151718210137
        0.212861820732440        0.000494794066627       -0.001317067429197       -0.201304908914047
        0.215280705058945        0.000514404768131       -0.001369402153747       -0.206926839790182
        0.217699589385450        0.000532646263256       -0.001418109059304       -0.211878935503292
        0.220118473711955        0.000549744519862       -0.001463787061313       -0.216272018748319
        0.222537358038460        0.000565146175148       -0.001504964642000       -0.219909228849680
        0.224956242364965        0.000579245038546       -0.001542687196473       -0.222966384554067
        0.227375126691470        0.000591330489925       -0.001575063622928       -0.225191618038753
        0.229794011017975        0.000601965001885       -0.001603588134330       -0.226822995159384
        0.232212895344480        0.000610286365914       -0.001625964867510       -0.227557825337439
        0.234631779670985        0.000617023499848       -0.001644131153443       -0.227692676469099
        0.237050663997490        0.000621171308533       -0.001655409303585       -0.226879057350051
        0.239469548323995        0.000623619825871       -0.001662165834170       -0.225467356301154
        0.241888432650500        0.000623232753819       -0.001661372163142       -0.223069058954876
        0.244307316977005        0.000621052786069       -0.001655801773566       -0.220082830030939
        0.246726201303510        0.000615826976930       -0.001642113837938       -0.216086569739364
        0.249145085630015        0.000608739138290       -0.001623458396492       -0.211520900347669
        0.251563969956520        0.000598436933547       -0.001596228298203       -0.205937128504458
        0.253982854283025        0.000586230766320       -0.001563911784772       -0.199810840110462
        0.256401738609530        0.000570688639472       -0.001522687975810       -0.192674178740680
        0.258820622936035        0.000553230196204       -0.001476337410535       -0.185030135463210
        0.261239507262540        0.000532365699988       -0.001420883991980       -0.176399437023992
        0.263658391589045        0.000509604072748       -0.001360347654759       -0.167304476320458
        0.266077275915550        0.000483421616765       -0.001290660622499       -0.157262497133161
        0.268496160242055        0.000455394235908       -0.001216023024508       -0.146806973083452
        0.270915044568560        0.000423989527259       -0.001132342946608       -0.135459655275578
        0.273333928895065        0.000390826069409       -0.001043936056957       -0.123756591818204
        0.275752813221570        0.000354389069592       -0.000946756722211       -0.111231955866186
        0.278171697548075        0.000316313837324       -0.000845167016628       -0.098415814778571
        0.280590581874580        0.000275130114374       -0.000735239669495       -0.084862472404761
        0.283009466201085        0.000232462777637       -0.000621310651980       -0.071087548584136
        0.285428350527590        0.000186913162572       -0.000499643523563       -0.056672853575990
        0.287847234854095        0.000140067783339       -0.000374473473004       -0.042111317951814
        0.290266119180600        0.000090626273404       -0.000242326426719       -0.027019180107518
        0.292685003507105        0.000040108569367       -0.000107261233724       -0.011858797966109
        0.295103887833610       -0.000012661543937        0.000033864537580        0.003712807502587
        0.297522772160115       -0.000066258704986        0.000177243458779        0.019271248194592
        0.299941656486620       -0.000121710468729        0.000325620626437        0.035113037154209
        0.302360540813125       -0.000177713316092        0.000475513246514        0.050858546952323
        0.304779425139630       -0.000235123459400        0.000629208254956        0.066752904816438
        0.307198309466135       -0.000292785245364        0.000783617440402        0.082467318281607
        0.309617193792640       -0.000351363149116        0.000940514847464        0.098191452474514
        0.312036078119145       -0.000409873657586        0.001097272153677        0.113652609156015
        0.314454962445650       -0.000468771834155        0.001255103023885        0.128981824795846
        0.316873846772155       -0.000527268345689        0.001411898363417        0.143966854652946
        0.319292731098660       -0.000585594283987        0.001568272258190        0.158677901132231
        0.321711615425165       -0.000643173843856        0.001722686967921        0.172966562248364
        0.324130499751670       -0.000700003049839        0.001875127017384        0.186840997987390
        0.326549384078175       -0.000755735862062        0.002024669797167        0.200219014408384
        0.328968268404680       -0.000810125903248        0.002170650296721        0.213046537638219
        0.331387152731185       -0.000863069653287        0.002312795457520        0.225308886031119
        0.333806037057690       -0.000914074997584        0.002449781406362        0.236890580837494
        0.336224921384195       -0.000963289889251        0.002582008845292        0.247844676225522
        0.338643805710700       -0.001009977313168        0.002707496830435        0.257996125058036
        0.341062690037205       -0.001054541590959        0.002827333139629        0.267464857957131
        0.343481574363710       -0.001096005919789        0.002938892963479        0.276019074209424
        0.345900458690215       -0.001135031636103        0.003043953075390        0.283843653923215
        0.348319343016720       -0.001170411568600        0.003139269523655        0.290653790891734
        0.350738227343225       -0.001203060345838        0.003227298293226        0.296696352416214
        0.353157111669730       -0.001231554108267        0.003304212439224        0.301638147877049
        0.355575995996235       -0.001257052638731        0.003373125560491        0.305784082783823
        0.357994880322740       -0.001277933207932        0.003429674999441        0.308758001577755
        0.360413764649245       -0.001295588229892        0.003477598648667        0.310917976403360
        0.362832648975750       -0.001308217862520        0.003512056050223        0.311851016831012
        0.365251533302255       -0.001317430349257        0.003537364639535        0.311962645964512
        0.367670417628760       -0.001321274155151        0.003548273999348        0.310809779548205
        0.370089301955265       -0.001321552455722        0.003549625415383        0.308838923474897
        0.372508186281770       -0.001316190757983        0.003535835379034        0.305584141842250
        0.374927070608275       -0.001307162434598        0.003512203073351        0.301525805970828
        0.377345954934780       -0.001292301668087        0.003472896702074        0.296182753354156
        0.379764839261285       -0.001273723785954        0.003423597997934        0.290061567614959
        0.382183723587790       -0.001249205700202        0.003358318349693        0.282673742809992
        0.384602607914295       -0.001220973342011        0.003283038338063        0.274544007813503
        0.387021492240800       -0.001186782294254        0.003191709254319        0.265184525424301
        0.389440376567305       -0.001148935093485        0.003090519675214        0.255129817208040
        0.391859260893810       -0.001105203243036        0.002973461197709        0.243900724586425
        0.394278145220315       -0.001057929757959        0.002846833745317        0.232033056788363
        0.396697029546820       -0.001004940004116        0.002704771641769        0.219064210154928
        0.399115913873325       -0.000948579787488        0.002553585196143        0.205522759701586
        0.401534798199830       -0.000886766329232        0.002387654151071        0.190970270349638
        0.403953682526335       -0.000821809586551        0.002213195526635        0.175919680249855
        0.406372566852840       -0.000751756022624        0.002024935653702        0.159963949271810
        0.408791451179345       -0.000678840793506        0.001828893564815        0.143592229633524
        0.411210335505850       -0.000601275724927        0.001620240018484        0.126435597028257
        0.413629219832355       -0.000521182566518        0.001404692092075        0.108951652715029
        0.416048104158860       -0.000436972708948        0.001177957695228        0.090815693781551
        0.418466988485365       -0.000350616905965        0.000945350505593        0.072446513948735
        0.420885872811870       -0.000260757765303        0.000703201460806        0.053569022306902
        0.423304757138375       -0.000169179136937        0.000456323716099        0.034556573178669
        0.425723641464880       -0.000074783346602        0.000201748624964        0.015188275376100
        0.428142525791385        0.000020866235097       -0.000056302208169       -0.004213857139278
        0.430561410117890        0.000118582773534       -0.000320029638037       -0.023812805828438
        0.432980294444395        0.000217053997233       -0.000585886832956       -0.043342972864425
        0.435399178770900        0.000316787988262       -0.000855250866870       -0.062906658264025
        0.437818063097405        0.000416750653613       -0.001125323479071       -0.082298850098541
        0.440236947423910        0.000517129078592       -0.001396614561999       -0.101559378915211
        0.442655831750415        0.000617190353171       -0.001667137311887       -0.120547016429041
        0.445074716076920        0.000716789687244       -0.001936504633017       -0.139238348934494
        0.447493600403425        0.000815513809626       -0.002203591824632       -0.157558107389759
        0.449912484729930        0.000912880506505       -0.002467099381705       -0.175419885549135
        0.452331369056435        0.001008809648883       -0.002726801975439       -0.192815493598704
        0.454750253382940        0.001102481592034       -0.002980487217988       -0.209596807718758
        0.457169137709445        0.001194157574165       -0.003228852123340       -0.225822765362097
        0.459588022035950        0.001282686174179       -0.003468786216421       -0.241285803663022
        0.462006906362455        0.001368672703229       -0.003701916843294       -0.256110964419593
        0.464425790688960        0.001450645306803       -0.003924265579217       -0.270034491963067
        0.466844675015465        0.001529550404699       -0.004138382680642       -0.283245456744189
        0.469263559341970        0.001603612670663       -0.004339467072576       -0.295428072788613
        0.471682443668475        0.001674110941967       -0.004530968924684       -0.306832345736869
