#           time (fs)    |     mu_x (e.angstrom)   |     mu_y (e.angstrom)   |     mu_z (e.angstrom)   |
        0.000000000000000       -0.000000000000000       -0.000000000000000        0.000000000000000
        0.002418884326505       -0.000000007978884       -0.000000005370179        0.000059276292640
        0.004837768653010       -0.000000122377005       -0.000000082367883        0.000454613720941
        0.007256652979515       -0.000000342758993       -0.000000230699084        0.000848913133410
        0.009675537306020       -0.000000864878177       -0.000000582120478        0.001606627826789
        0.012094421632525       -0.000001588288211       -0.000001069022259        0.002360495195374
        0.014513305959030       -0.000002823761853       -0.000001900578453        0.003497396312309
        0.016932190285535       -0.000004357030777       -0.000002932566837        0.004625772409513
        0.019351074612040       -0.000006618370807       -0.000004454596236        0.006148608845647
        0.021769958938545       -0.000009270927286       -0.000006239931553        0.007656321173746
        0.024188843265050       -0.000012863500906       -0.000008657956723        0.009561426398143
        0.026607727591555       -0.000016933277472       -0.000011397151325        0.011442887082891
        0.029026611918060       -0.000022141071493       -0.000014902289375        0.013716037425258
        0.031445496244565       -0.000027900329197       -0.000018778556801        0.015955155791446
        0.033864380571070       -0.000034971912805       -0.000023538059506        0.018571646723576
        0.036283264897575       -0.000042653395735       -0.000028707982039        0.021141959785992
        0.038702149224080       -0.000051788492159       -0.000034856182627        0.024066900283640
        0.041121033550585       -0.000061572319030       -0.000041440872398        0.026931919904245
        0.043539917877090       -0.000072909385360       -0.000049070809389        0.030120740476686
        0.045958802203595       -0.000084911070491       -0.000057147829283        0.033234511472920
        0.048377686530100       -0.000098516263095       -0.000066303804140        0.036633677060740
        0.050796570856605       -0.000112776233946       -0.000075900098710        0.039941536253258
        0.053215455183110       -0.000128634105297       -0.000086571403545        0.043489451068262
        0.055634339509615       -0.000145109049132       -0.000097657467502        0.046928973269393
        0.058053223836120       -0.000163115281580       -0.000109773492316        0.050557060913171
        0.060472108162625       -0.000181671611147       -0.000122258975503        0.054059174298786
        0.062890992489130       -0.000201628045563       -0.000135685872181        0.057693113245785
        0.065309876815635       -0.000222037724234       -0.000149416786173        0.061183363496108
        0.067728761142140       -0.000243649888140       -0.000163955829706        0.064744455322588
        0.070147645468645       -0.000265588800409       -0.000178713483282        0.068144395421064
        0.072566529795150       -0.000288466082707       -0.000194101230508        0.071551041030554
        0.074985414121655       -0.000311515077751       -0.000209602980369        0.074779721663707
        0.077404298448160       -0.000335173636983       -0.000225513284042        0.077948979179203
        0.079823182774665       -0.000358822312539       -0.000241415144327        0.080924513265262
        0.082242067101170       -0.000382690743981       -0.000257463036601        0.083773710189404
        0.084660951427675       -0.000406343976235       -0.000273364147061        0.086414884123397
        0.087079835754180       -0.000429771701181       -0.000289111562554        0.088863255744960
        0.089498720080685       -0.000452758864728       -0.000304560471649        0.091091159417477
        0.091917604407190       -0.000475027143842       -0.000319523736993        0.093061485196405
        0.094336488733695       -0.000496613904693       -0.000334026413437        0.094801132656354
        0.096755373060200       -0.000516949317024       -0.000347685388367        0.096221342387503
        0.099174257386705       -0.000536351821843       -0.000360714833566        0.097403255121831
        0.101593141713210       -0.000553941992530       -0.000372523548859        0.098207977013928
        0.104012026039715       -0.000570343219323       -0.000383530843757        0.098769702176612
        0.106430910366220       -0.000584354522844       -0.000392929444204        0.098901725567168
        0.108849794692725       -0.000596922502826       -0.000401356027945        0.098789262099728
        0.111268679019230       -0.000606519415516       -0.000407783794547        0.098200888366367
        0.113687563345735       -0.000614426983692       -0.000413074739426        0.097369994834591
        0.116106447672240       -0.000618792710078       -0.000415983934659        0.096024251192507
        0.118525331998745       -0.000621238394219       -0.000417601952737        0.094441610364426
        0.120944216325250       -0.000619596347684       -0.000416472206510        0.092313302712705
        0.123363100651755       -0.000615825963074       -0.000413912098409        0.089957519482376
        0.125781984978260       -0.000607461643776       -0.000408265030807        0.087034102342842
        0.128200869304765       -0.000596790125910       -0.000401068267251        0.083896513628267
        0.130619753631270       -0.000581072909268       -0.000390482027874        0.080178757570719
        0.133038637957775       -0.000562905890097       -0.000378251140052        0.076264035338251
        0.135457522284280       -0.000539310219193       -0.000362374533329        0.071766475150711
        0.137876406610785       -0.000513164836190       -0.000344786979725        0.067093006776356
        0.140295290937290       -0.000481290302482       -0.000323352841560        0.061844157035082
        0.142714175263795       -0.000446814725126       -0.000300174017129        0.056444190805717
        0.145133059590300       -0.000406404525302       -0.000273011511137        0.050486519406390
        0.147551943916805       -0.000363395691669       -0.000244106569989        0.044406067051002
        0.149970828243310       -0.000314352964997       -0.000211152081728        0.037795721616153
        0.152389712569815       -0.000262772042549       -0.000176496257201        0.031094214255579
        0.154808596896320       -0.000205173623076       -0.000137802582454        0.023900501028170
        0.157227481222825       -0.000145158742524       -0.000097489708650        0.016650199718023
        0.159646365549330       -0.000079265903492       -0.000053233256887        0.008954819444634
        0.162065249875835       -0.000011141762099       -0.000007482223321        0.001239986404450
        0.164484134202340        0.000062592414985        0.000042032010317       -0.006863963364750
        0.166903018528845        0.000138308425413        0.000092873104702       -0.014948121867934
        0.169321902855350        0.000219235359122        0.000147209006696       -0.023357363861849
        0.171740787181855        0.000301830775804        0.000202661192998       -0.031705967355461
        0.174159671508360        0.000389106598856        0.000261251601111       -0.040308462400050
        0.176578555834865        0.000477675463637        0.000320706019793       -0.048808418893489
        0.178997440161370        0.000570265291325        0.000382855508614       -0.057484961854437
        0.181416324487875        0.000663713798167        0.000445577124147       -0.066016599766388
        0.183835208814380        0.000760400116849        0.000510467566687       -0.074642567649141
        0.186254093140885        0.000857456368118        0.000575601658756       -0.083081410281573
        0.188672977467390        0.000956851525690        0.000642300568414       -0.091528633851780
        0.191091861793895        0.001056079351272        0.000708881984614       -0.099747287327339
        0.193510746120400        0.001156642049074        0.000776353584678       -0.107886015665130
        0.195929630446905        0.001256458761470        0.000843318682537       -0.115756139563231
        0.198348514773410        0.001356514367825        0.000910437593231       -0.123457065721754
        0.200767399099915        0.001455212249074        0.000976638742640       -0.130851394644093
        0.203186283426420        0.001552976679762        0.001042206119749       -0.137987709993121
        0.205605167752925        0.001648747923391        0.001106428581730       -0.144782093894570
        0.208024052079430        0.001742354764783        0.001169190487087       -0.151231538711187
        0.210442936405935        0.001833319528539        0.001230171432232       -0.157306969957290
        0.212861820732440        0.001920850015094        0.001288839165944       -0.162953848279658
        0.215280705058945        0.002005087178234        0.001345288546897       -0.168198443938874
        0.217699589385450        0.002084602577794        0.001398560624957       -0.172935571526477
        0.220118473711955        0.002160182740190        0.001449183572764       -0.177246480280982
        0.222537358038460        0.002229758647827        0.001495768992502       -0.180977035638914
        0.224956242364965        0.002294778857025        0.001539289367454       -0.184262239827370
        0.227375126691470        0.002352540851157        0.001577931767949       -0.186901489589562
        0.229794011017975        0.002405160497921        0.001613116462330       -0.189081474230928
        0.232212895344480        0.002449320571145        0.001642618758058       -0.190558345724577
        0.234631779670985        0.002487797854194        0.001668302321772       -0.191567607897456
        0.237050663997490        0.002516690996264        0.001687551366107       -0.191826083427178
        0.239469548323995        0.002539419323653        0.001702660507083       -0.191614457109239
        0.241888432650500        0.002551539606193        0.001710651328395       -0.190614766432800
        0.244307316977005        0.002557083275090        0.001714228828529       -0.189148539880181
        0.246726201303510        0.002551118768140        0.001710087975947       -0.186868129547855
        0.249145085630015        0.002538247248098        0.001701315560593       -0.184130934572437
        0.251563969956520        0.002513113089026        0.001684323099472       -0.180565195329637
        0.253982854283025        0.002480833227885        0.001662542804441       -0.176558650474459
        0.256401738609530        0.002435702165222        0.001632152513314       -0.171721386840521
        0.258820622936035        0.002383287643138        0.001596886108071       -0.166465479513267
        0.261239507262540        0.002317617393110        0.001552743449407       -0.160389108990946
        0.263658391589045        0.002244634770509        0.001503709498660       -0.153922305124044
        0.266077275915550        0.002158191553810        0.001445666964815       -0.146657778280072
        0.268496160242055        0.002064522294443        0.001382795142492       -0.139036852043258
        0.270915044568560        0.001957399965911        0.001310924615372       -0.130653288910345
        0.273333928895065        0.001843257867182        0.001234366924661       -0.121952869369148
        0.275752813221570        0.001715892111819        0.001148968732061       -0.112536912194163
        0.278171697548075        0.001581835641063        0.001059107331768       -0.102848748507068
        0.280590581874580        0.001435012785538        0.000960715734239       -0.092503635709896
        0.283009466201085        0.001281951902038        0.000858167124386       -0.081935587372142
        0.285428350527590        0.001116811980156        0.000747552022628       -0.070779958552166
        0.287847234854095        0.000946009116529        0.000633167399707       -0.059454722179972
        0.290266119180600        0.000764042927920        0.000511332112885       -0.047621168955824
        0.292685003507105        0.000577107908782        0.000386193766487       -0.035674757998215
        0.295103887833610        0.000380147919470        0.000254368795224       -0.023308140223953
        0.297522772160115        0.000179026706859        0.000119782481617       -0.010888138622469
        0.299941656486620       -0.000030768244753       -0.000020584765334        0.001856310074518
        0.302360540813125       -0.000243810974052       -0.000163101471617        0.014592695042544
        0.304779425139630       -0.000463977085395       -0.000310360941807        0.027551444556816
        0.307198309466135       -0.000686381409201       -0.000459094251247        0.040439501352881
        0.309617193792640       -0.000914177239968       -0.000611411392674        0.053442954104792
        0.312036078119145       -0.001143117271524       -0.000764470725770        0.066312726014137
        0.314454962445650       -0.001375556681115       -0.000919848333755        0.079187563958879
        0.316873846772155       -0.001607975317799       -0.001075189369478        0.091866213984459
        0.319292731098660       -0.001841865602231       -0.001231492895017        0.104437828083894
        0.321711615425165       -0.002074514297747       -0.001386943980591        0.116752073890030
        0.324130499751670       -0.002306499018939       -0.001541929996471        0.128847039403601
        0.326549384078175       -0.002535982043049       -0.001695221594450        0.140625621708599
        0.328968268404680       -0.002762587957951       -0.001846569055348        0.152074182258291
        0.331387152731185       -0.002985410526435       -0.001995365844601        0.163150329900042
        0.333806037057690       -0.003203097948814       -0.002140709720362        0.173788853497612
        0.336224921384195       -0.003415717535692       -0.002282644911447        0.184002708814062
        0.338643805710700       -0.003620933399648       -0.002419611719612        0.193676079824825
        0.341062690037205       -0.003819813483715       -0.002552323093122        0.202877048918072
        0.343481574363710       -0.004009046325136       -0.002678567808499        0.211440961187373
        0.345900458690215       -0.004190711773348       -0.002799734938383        0.219489954992480
        0.348319343016720       -0.004360547803096       -0.002912978715365        0.226813072997321
        0.350738227343225       -0.004521641054084       -0.003020360799305        0.233584606781055
        0.353157111669730       -0.004668820464627       -0.003118428908029        0.239550563623429
        0.355575995996235       -0.004806157646423       -0.003209902595256        0.244934684538019
        0.357994880322740       -0.004927630271738       -0.003290761947154        0.249443887821480
        0.360413764649245       -0.005038256368828       -0.003364358532055        0.253347902399448
        0.362832648975750       -0.005131235805979       -0.003426154155421        0.256319121501704
        0.365251533302255       -0.005212477982455       -0.003480095494515        0.258669097486591
        0.367670417628760       -0.005274493282881       -0.003521185317660        0.260040808454095
        0.370089301955265       -0.005324011471521       -0.003553917829234        0.260782828123510
        0.372508186281770       -0.005352955521546       -0.003572905138854        0.260514295380150
        0.374927070608275       -0.005368789404102       -0.003583131259692        0.259615440548825
        0.377345954934780       -0.005362963138618       -0.003578894225816        0.257687517849077
        0.379764839261285       -0.005343574671501       -0.003565600728458        0.255136570061052
        0.382183723587790       -0.005301726303148       -0.003537318424880        0.251552206646499
        0.384602607914295       -0.005246036986155       -0.003499801041554        0.247360049692556
        0.387021492240800       -0.005167395485581       -0.003446975441543        0.242144491438314
        0.389440376567305       -0.005074817630055       -0.003384859296547        0.236344207269030
        0.391859260893810       -0.004959119761508       -0.003307332786646        0.229544886724830
        0.394278145220315       -0.004829581088679       -0.003220588206053        0.222191540052552
        0.396697029546820       -0.004677091389248       -0.003118556234222        0.213877653660832
        0.399115913873325       -0.004511052379287       -0.003007509578390        0.205047765012561
        0.401534798199830       -0.004322575568991       -0.002881528134346        0.195309540366513
        0.403953682526335       -0.004121039085474       -0.002746867382441        0.185100251995814
        0.406372566852840       -0.003897924507728       -0.002597855095236        0.174047912703125
        0.408791451179345       -0.003662437339238       -0.002440629999071        0.162575856501343
        0.411210335505850       -0.003406575155003       -0.002269864727020        0.150338296942815
        0.413629219832355       -0.003139221243081       -0.002091481441494        0.137738178198903
        0.416048104158860       -0.002853030234641       -0.001900591319864        0.124461365099823
        0.418466988485365       -0.002556415492511       -0.001702801506402        0.110884280524418
        0.420885872811870       -0.002242822471187       -0.001493750506529        0.096729402669113
        0.423304757138375       -0.001920051237342       -0.001278634992312        0.082340915400891
        0.425723641464880       -0.001582462190332       -0.001053703130071        0.067482306899298
        0.428142525791385       -0.001237105501873       -0.000823650287697        0.052460305136434
        0.430561410117890       -0.000879368753354       -0.000585408698298        0.037083171289522
        0.432980294444395       -0.000515424762633       -0.000343087786991        0.021615540637703
        0.435399178770900       -0.000141786560100       -0.000094368956177        0.005913518559067
        0.437818063097405        0.000236366448381        0.000157301263721       -0.009804338916751
        0.440236947423910        0.000621313382681        0.000413437754897       -0.025631750246092
        0.442655831750415        0.001008970792635        0.000671324757455       -0.041399514987814
        0.445074716076920        0.001400345085822        0.000931630555648       -0.057149618662201
        0.447493600403425        0.001792535868852        0.001192427698404       -0.072764733662836
        0.449912484729930        0.002185230929512        0.001453507593639       -0.088234354969681
        0.452331369056435        0.002576782882417        0.001713777188279       -0.103494748925292
        0.454750253382940        0.002965535077527        0.001972134094852       -0.118482973188599
        0.457169137709445        0.003351144484656        0.002228353355947       -0.133189788367985
        0.459588022035950        0.003730605116138        0.002480435782438       -0.147500678039609
        0.462006906362455        0.004104909866957        0.002729045062240       -0.161460964638807
        0.464425790688960        0.004469719934690        0.002971296449149       -0.174906217686657
        0.466844675015465        0.004827375063494        0.003208749121298       -0.187935557125796
        0.469263559341970        0.005172241748042        0.003437658383000       -0.200337069804917
        0.471682443668475        0.005507996313854        0.003660471696598       -0.212262090603006
