#           time (fs)       | force (atom_1) (H/b)   |  force (atom_2) (H/b)  |           ...          |  force (atom_N) (H/b)  |
        0.000000000000000       -0.000000000000000       -0.000000000000000       -0.001977038000788       -0.000000000000000       -0.000000000000000        0.001977038000788
        0.120944216325250        0.000006534562707       -0.000007759811032       -0.002478691654994       -0.000006534562707        0.000007759811032        0.002478691655769
        0.241888432650500        0.000014019310620       -0.000016647968550       -0.002943393172547       -0.000014019310620        0.000016647968550        0.002943393170124
        0.362832648975750        0.000022074051454       -0.000026212993711       -0.003029206145032       -0.000022074051454        0.000026212993711        0.003029206144534
        0.483776865301000        0.000030457631436       -0.000036168516653       -0.002786347855091       -0.000030457631436        0.000036168516653        0.002786347854014
        0.604721081626250        0.000037279626764       -0.000044269655041       -0.002617219045747       -0.000037279626764        0.000044269655041        0.002617219046021
        0.725665297951500        0.000047110954916       -0.000055944383105       -0.003034964195026       -0.000047110954916        0.000055944383105        0.003034964196432
        0.846609514276750        0.000053395260461       -0.000063407011616       -0.003162639626271       -0.000053395260461        0.000063407011616        0.003162639627412
        0.967553730602000        0.000059429366567       -0.000070572528972       -0.003002482595188       -0.000059429366567        0.000070572528972        0.003002482597079
        1.088497946927250        0.000063202109069       -0.000075052670391       -0.002506995032074       -0.000063202109069        0.000075052670391        0.002506995032140
        1.209442163252500        0.000063320767515       -0.000075193578165       -0.002249753583475       -0.000063320767515        0.000075193578165        0.002249753583318
        1.330386379577750        0.000068279960993       -0.000081082633810       -0.002560618604947       -0.000068279960993        0.000081082633810        0.002560618603097
        1.451330595903000        0.000064109748319       -0.000076130495280       -0.002346945906232       -0.000064109748319        0.000076130495280        0.002346945909546
        1.572274812228250        0.000060182729061       -0.000071467148583       -0.001956457284899       -0.000060182729061        0.000071467148583        0.001956457284809
        1.693219028553500        0.000052332347659       -0.000062144801299       -0.001316891696208       -0.000052332347659        0.000062144801299        0.001316891696931
        1.814163244878750        0.000039005714087       -0.000046319389328       -0.000990520728165       -0.000039005714087        0.000046319389328        0.000990520726507
        1.935107461204000        0.000033937338564       -0.000040300679056       -0.001222803663558       -0.000033937338564        0.000040300679056        0.001222803662849
        2.056051677529250        0.000013436453821       -0.000015955824189       -0.000722938266790       -0.000013436453821        0.000015955824189        0.000722938257430
        2.176995893854500       -0.000004337492100        0.000005150784389       -0.000172566435683        0.000004337492100       -0.000005150784389        0.000172566432500
        2.297940110179750       -0.000025909897255        0.000030768070580        0.000478821845190        0.000025909897255       -0.000030768070580       -0.000478821845509
        2.418884326505000       -0.000053705943195        0.000063775948933        0.000796371145349        0.000053705943195       -0.000063775948933       -0.000796371139673
        2.539828542830250       -0.000069444741012        0.000082465812682        0.000610090440809        0.000069444741012       -0.000082465812682       -0.000610090434817
        2.660772759155500       -0.000104328692968        0.000123890597354        0.001260562817198        0.000104328692968       -0.000123890597354       -0.001260562802274
        2.781716975480750       -0.000134863889995        0.000160151224138        0.001882563382584        0.000134863889995       -0.000160151224138       -0.001882563376803
        2.902661191806000       -0.000164493797410        0.000195336818394        0.002386383588304        0.000164493797410       -0.000195336818394       -0.002386383589982
        3.023605408131250       -0.000202702370140        0.000240709598250        0.002622149913594        0.000202702370140       -0.000240709598250       -0.002622149924934
        3.144549624456500       -0.000223939470856        0.000265928710949        0.002437339779551        0.000223939470856       -0.000265928710949       -0.002437339792005
        3.265493840781750       -0.000266187398303        0.000316098235235        0.003114577135557        0.000266187398303       -0.000316098235235       -0.003114577153655
        3.386438057107000       -0.000302590739544        0.000359327299910        0.003697528701550        0.000302590739544       -0.000359327299910       -0.003697528707899
        3.507382273432250       -0.000331079596013        0.000393157893194        0.003950026124355        0.000331079596013       -0.000393157893194       -0.003950026119333
        3.628326489757500       -0.000369281471121        0.000438522719368        0.004016280586157        0.000369281471121       -0.000438522719368       -0.004016280569237
        3.749270706082750       -0.000388728084601        0.000461615623032        0.003820830592638        0.000388728084601       -0.000461615623032       -0.003820830574447
        3.870214922408000       -0.000425141437409        0.000504856576282        0.004386783222010        0.000425141437409       -0.000504856576282       -0.004386783204214
        3.991159138733250       -0.000458531091086        0.000544506876704        0.004845525633039        0.000458531091086       -0.000544506876704       -0.004845525628425
        4.112103355058500       -0.000473545793466        0.000562336875850        0.004778358046187        0.000473545793466       -0.000562336875850       -0.004778358055222
        4.233047571383750       -0.000501120897645        0.000595082384410        0.004642107681883        0.000501120897645       -0.000595082384410       -0.004642107701989
        4.353991787709000       -0.000510092645941        0.000605736359304        0.004432651859963        0.000510092645941       -0.000605736359304       -0.004432651881509
        4.474936004034250       -0.000529805348319        0.000629145244506        0.004821303606708        0.000529805348319       -0.000629145244506       -0.004821303621245
        4.595880220359500       -0.000549173645321        0.000652145149186        0.005074891019238        0.000549173645321       -0.000652145149186       -0.005074891020577
        4.716824436684750       -0.000542781338941        0.000644554268822        0.004708079960977        0.000542781338941       -0.000644554268822       -0.004708079948172
        4.837768653010000       -0.000547507362807        0.000650166434676        0.004349508870012        0.000547507362807       -0.000650166434676       -0.004349508850683
        4.958712869335250       -0.000540781338351        0.000642179262799        0.004151304506765        0.000540781338351       -0.000642179262799       -0.004151304485499
        5.079657085660500       -0.000533170158350        0.000633140967054        0.004317515770657        0.000533170158350       -0.000633140967054       -0.004317515760751
        5.200601301985750       -0.000531889792005        0.000631620528036        0.004340500034999        0.000531889792005       -0.000631620528036       -0.004340500036951
        5.321545518311000       -0.000498367534220        0.000591812758867        0.003722167315840        0.000498367534220       -0.000591812758867       -0.003722167330948
        5.442489734636251       -0.000476911256992        0.000566333373544        0.003212947718008        0.000476911256992       -0.000566333373544       -0.003212947732798
        5.563433950961501       -0.000450955253635        0.000535510551160        0.003036927574621        0.000450955253635       -0.000535510551160       -0.003036927591877
        5.684378167286750       -0.000416365615377        0.000494435265100        0.003028429066038        0.000416365615377       -0.000494435265100       -0.003028429071470
        5.805322383612000       -0.000390258614356        0.000463433132590        0.002817119628862        0.000390258614356       -0.000463433132590       -0.002817119625151
        5.926266599937250       -0.000333246816582        0.000395731472888        0.002054851742522        0.000333246816582       -0.000395731472888       -0.002054851727823
        6.047210816262500       -0.000286031038702        0.000339662612042        0.001482580309682        0.000286031038702       -0.000339662612042       -0.001482580301490
        6.168155032587750       -0.000245197920458        0.000291173177415        0.001364170929312        0.000245197920458       -0.000291173177415       -0.001364170918289
        6.289099248913001       -0.000187325424361        0.000222449436071        0.001230383689506        0.000187325424361       -0.000222449436071       -0.001230383687426
        6.410043465238251       -0.000144271547327        0.000171322844175        0.000866741307549        0.000144271547327       -0.000171322844175       -0.000866741310762
        6.530987681563500       -0.000070702346113        0.000083959223147        0.000056690830089        0.000070702346113       -0.000083959223147       -0.000056690841234
        6.651931897888750       -0.000013463035645        0.000015987391851       -0.000413222810048        0.000013463035645       -0.000015987391851        0.000413222808275
        6.772876114214000        0.000034314757302       -0.000040748862268       -0.000452258198274       -0.000034314757302        0.000040748862268        0.000452258193424
        6.893820330539250        0.000098583685965       -0.000117068385081       -0.000606165238546       -0.000098583685965        0.000117068385081        0.000606165238244
        7.014764546864500        0.000146666449867       -0.000174166792431       -0.001028316419586       -0.000146666449867        0.000174166792431        0.001028316420569
        7.135708763189751        0.000220101965134       -0.000261371660792       -0.001766026988663       -0.000220101965134        0.000261371660792        0.001766026994154
        7.256652979515001        0.000270816680400       -0.000321595517784       -0.002012774288259       -0.000270816680400        0.000321595517784        0.002012774285946
        7.377597195840250        0.000308553264686       -0.000366407811347       -0.001923631128945       -0.000308553264686        0.000366407811347        0.001923631129582
        7.498541412165500        0.000364156143781       -0.000432436377182       -0.002044038790968       -0.000364156143781        0.000432436377182        0.002044038790998
        7.619485628490750        0.000394106351170       -0.000468002326704       -0.002380086545657       -0.000394106351170        0.000468002326704        0.002380086547050
        7.740429844816000        0.000452322733763       -0.000537134433410       -0.002971216188339       -0.000452322733763        0.000537134433410        0.002971216188425
        7.861374061141250        0.000470632141190       -0.000558876902113       -0.002870455771430       -0.000470632141190        0.000558876902113        0.002870455774470
        7.982318277466501        0.000484131480467       -0.000574907404033       -0.002640073689787       -0.000484131480467        0.000574907404033        0.002640073690730
        8.103262493791750        0.000510665789590       -0.000606416965180       -0.002671498369366       -0.000510665789590        0.000606416965180        0.002671498368790
        8.224206710117000        0.000507199291704       -0.000602300490272       -0.002842693869236       -0.000507199291704        0.000602300490272        0.002842693867209
        8.345150926442249        0.000533011392480       -0.000632952427149       -0.003219872729905       -0.000533011392480        0.000632952427149        0.003219872726927
        8.466095142767500        0.000507961271202       -0.000603205341807       -0.002775017063069       -0.000507961271202        0.000603205341807        0.002775017062134
        8.587039359092751        0.000482792241384       -0.000573317052622       -0.002391428078808       -0.000482792241384        0.000573317052622        0.002391428078238
        8.707983575418000        0.000474615084509       -0.000563606657030       -0.002365204702492       -0.000474615084509        0.000563606657030        0.002365204703226
        8.828927791743251        0.000423790062814       -0.000503251811010       -0.002312820593786       -0.000423790062814        0.000503251811010        0.002312820593588
        8.949872008068500        0.000412433197623       -0.000489765502752       -0.002473041707385       -0.000412433197623        0.000489765502752        0.002473041709104
        9.070816224393750        0.000337486090479       -0.000400765616144       -0.001731963628251       -0.000337486090479        0.000400765616144        0.001731963625819
        9.191760440718999        0.000274221062450       -0.000325638228077       -0.001249676837914       -0.000274221062450        0.000325638228077        0.001249676837776
        9.312704657044250        0.000231278854999       -0.000274644243252       -0.001206601482272       -0.000231278854999        0.000274644243252        0.001206601483024
        9.433648873369501        0.000140604613274       -0.000166968343323       -0.000978053068959       -0.000140604613274        0.000166968343323        0.000978053074167
        9.554593089694750        0.000094489291275       -0.000112206275563       -0.000941117506298       -0.000094489291275        0.000112206275563        0.000941117509215
        9.675537306020001       -0.000013187028043        0.000015659636969       -0.000058857479275        0.000013187028043       -0.000015659636969        0.000058857484644
        9.796481522345250       -0.000107286148171        0.000127402588687        0.000454455643883        0.000107286148171       -0.000127402588687       -0.000454455644243
        9.917425738670500       -0.000167377827021        0.000198761616131        0.000427098564014        0.000167377827021       -0.000198761616131       -0.000427098568452
       10.038369954995749       -0.000286217314527        0.000339883820318        0.000778940389978        0.000286217314527       -0.000339883820318       -0.000778940401959
       10.159314171321000       -0.000351063986560        0.000416889414167        0.000945119459316        0.000351063986560       -0.000416889414167       -0.000945119467876
       10.280258387646251       -0.000471872987648        0.000560350420112        0.001828321881261        0.000471872987648       -0.000560350420112       -0.001828321887892
       10.401202603971500       -0.000575383603991        0.000683269550330        0.002265622190078        0.000575383603991       -0.000683269550330       -0.002265622187282
       10.522146820296751       -0.000633149227746        0.000751866380408        0.002111355542302        0.000633149227746       -0.000751866380408       -0.002111355532548
       10.643091036622000       -0.000751756650949        0.000892713009338        0.002481163194167        0.000751756650949       -0.000892713009338       -0.002481163175701
       10.764035252947250       -0.000816901598896        0.000970072805830        0.002709767810807        0.000816901598896       -0.000970072805830       -0.002709767797965
       10.884979469272501       -0.000917969919717        0.001090091702115        0.003429899335734        0.000917969919717       -0.001090091702115       -0.003429899330075
       11.005923685597750       -0.001011189063181        0.001200789679620        0.003716149457437        0.001011189063181       -0.001200789679620       -0.003716149464297
       11.126867901923001       -0.001042052379989        0.001237439950836        0.003391003918553        0.001042052379989       -0.001237439950836       -0.003391003934006
       11.247812118248250       -0.001139524872985        0.001353188794464        0.003718677060728        0.001139524872985       -0.001353188794464       -0.003718677083001
       11.368756334573501       -0.001183835547115        0.001405807835156        0.003938855046069        0.001183835547115       -0.001405807835156       -0.003938855060588
       11.489700550898750       -0.001244092143459        0.001477362702074        0.004406156239267        0.001244092143459       -0.001477362702074       -0.004406156242156
       11.610644767224001       -0.001301887911872        0.001545995329104        0.004466856743480        0.001301887911872       -0.001545995329104       -0.004466856732277
       11.731588983549251       -0.001292564692907        0.001534923983060        0.003990121790848        0.001292564692907       -0.001534923983060       -0.003990121770703
       11.852533199874500       -0.001341027311975        0.001592473470473        0.004197842061259        0.001341027311975       -0.001592473470473       -0.004197842039457
       11.973477416199751       -0.001352584306825        0.001606197432451        0.004371815240204        0.001352584306825       -0.001606197432451       -0.004371815226923
       12.094421632525000       -0.001349974550378        0.001603098340437        0.004516729116544        0.001349974550378       -0.001603098340437       -0.004516729117169
       12.215365848850251       -0.001362017263036        0.001617399093115        0.004347080515044        0.001362017263036       -0.001617399093115       -0.004347080528933
       12.336310065175500       -0.001302692699836        0.001546951017845        0.003754323590851        0.001302692699836       -0.001546951017845       -0.003754323613328
       12.457254281500751       -0.001297154609195        0.001540374522464        0.003848613695778        0.001297154609195       -0.001540374522464       -0.003848613713302
       12.578198497826001       -0.001265266083027        0.001502506814172        0.003934082308461        0.001265266083027       -0.001502506814172       -0.003934082318193
       12.699142714151250       -0.001202172755116        0.001427583321067        0.003786974043329        0.001202172755116       -0.001427583321067       -0.003786974039537
       12.820086930476501       -0.001157268885567        0.001374259857386        0.003390599106778        0.001157268885567       -0.001374259857386       -0.003390599093291
       12.941031146801750       -0.001055629548759        0.001253562878769        0.002761663208398        0.001055629548759       -0.001253562878769       -0.002761663187080
       13.061975363127001       -0.000990321329086        0.001176009196259        0.002745393636922        0.000990321329086       -0.001176009196259       -0.002745393625498
       13.182919579452250       -0.000921846092200        0.001094694672357        0.002746221002449        0.000921846092200       -0.001094694672357       -0.002746220997147
       13.303863795777501       -0.000801969987287        0.000952341482751        0.002346402425300        0.000801969987287       -0.000952341482751       -0.002346402430989
       13.424808012102751       -0.000717432695742        0.000851953226619        0.001825540755349        0.000717432695742       -0.000851953226619       -0.001825540765281
