#  GS molecular orbital populations, spin channel : 1
#          time (fs)            |   population (orb 1)       |    population (orb 2)      |           ...              |    population (orb N)      |
          0.118525331998745            1.999981591491129            0.000000001455596  
          0.239469548323995            1.999982765819509            0.000000001613913  
          0.360413764649245            1.999984109097781            0.000000016729486  
          0.481357980974495            1.999985647641472            0.000000006879897  
          0.602302197299745            1.999987331721378            0.000000006134177  
          0.723246413624995            1.999989153975567            0.000000004266200  
          0.844190629950245            1.999991095998874            0.000000000410436  
          0.965134846275495            1.999993111655125            0.000000019958781  
          1.086079062600745            1.999995172254152            0.000000069564097  
          1.207023278925995            1.999997370545541            0.000000033524149  
          1.327967495251245            1.999999585396154            0.000000009378228  
          1.448911711576495            2.000001775082407            0.000000014764369  
          1.569855927901745            2.000003963454470            0.000000001810250  
          1.690800144226995            2.000006031077389            0.000000066232841  
          1.811744360552245            2.000008006494840            0.000000156119522  
          1.932688576877495            2.000010054236030            0.000000084579371  
          2.053632793202745            2.000011988584549            0.000000016208414  
          2.174577009527995            2.000013708421205            0.000000032062492  
          2.295521225853245            2.000015319743754            0.000000007979692  
          2.416465442178495            2.000016607473178            0.000000142880832  
          2.537409658503745            2.000017703376923            0.000000290346481  
          2.658353874828995            2.000018885571586            0.000000160057726  
          2.779298091154245            2.000019868511863            0.000000027874340  
          2.900242307479495            2.000020474198294            0.000000063668879  
          3.021186523804745            2.000020944545412            0.000000020183875  
          3.142130740129995            2.000020921995739            0.000000252261477  
          3.263074956455245            2.000020671481662            0.000000493637886  
          3.384019172780495            2.000020683942047            0.000000254879149  
          3.504963389105745            2.000020452215636            0.000000047291237  
          3.625907605430995            2.000019733833585            0.000000118432707  
          3.746851821756245            2.000018967927867            0.000000037146080  
          3.867796038081495            2.000017572616327            0.000000395628795  
          3.988740254406745            2.000015976033429            0.000000776377430  
          4.109684470731995            2.000015011374887            0.000000359375794  
          4.230628687057245            2.000013763879569            0.000000074422199  
          4.351572903382495            2.000011970078265            0.000000199693322  
          4.472517119707745            2.000010325042032            0.000000057409846  
          4.593461336032996            2.000007932329007            0.000000562545469  
          4.714405552358246            2.000005397680568            0.000001126823550  
          4.835349768683495            2.000004029562063            0.000000461528619  
          4.956293985008745            2.000002313034682            0.000000101876446  
          5.077238201333995            2.000000016602829            0.000000298086523  
          5.198182417659245            1.999998129975534            0.000000081612696  
          5.319126633984495            1.999995391838569            0.000000734619337  
          5.440070850309746            1.999992576532720            0.000001501414929  
          5.561015066634996            1.999991530824984            0.000000556089016  
          5.681959282960245            1.999990051521194            0.000000121515233  
          5.802903499285495            1.999987963685109            0.000000389825982  
          5.923847715610745            1.999986539293156            0.000000108676598  
          6.044791931935995            1.999984169971524            0.000000903830763  
          6.165736148261245            1.999981801044501            0.000001844258953  
          6.286680364586495            1.999981737003854            0.000000641930864  
          6.407624580911745            1.999981153615657            0.000000134375120  
          6.528568797236995            1.999979925986721            0.000000456565523  
          6.649513013562244            1.999979543232817            0.000000131839018  
          6.770457229887494            1.999978100187651            0.000001073578724  
          6.891401446212745            1.999976746078641            0.000002136904886  
          7.012345662537995            1.999978092686208            0.000000716527603  
          7.133289878863245            1.999978806835493            0.000000147292149  
          7.254234095188495            1.999978812801260            0.000000502690287  
          7.375178311513745            1.999979747085388            0.000000146536843  
          7.496122527838994            1.999979426477801            0.000001256971513  
          7.617066744164244            1.999979266899275            0.000002408674469  
          7.738010960489495            1.999982074312772            0.000000788940126  
          7.858955176814745            1.999984065907399            0.000000168571611  
          7.979899393139995            1.999985227935970            0.000000545090601  
          8.100843609465246            1.999987309105034            0.000000157036264  
          8.221787825790495            1.999987808717976            0.000001487371934  
          8.342732042115745            1.999988532841065            0.000002707794379  
          8.463676258440994            1.999992394821100            0.000000886763292  
          8.584620474766245            1.999995189735642            0.000000207159147  
          8.705564691091494            1.999996959051369            0.000000601377289  
          8.826508907416745            1.999999576002035            0.000000175585557  
          8.947453123741996            2.000000140472644            0.000001806631749  
          9.068397340067245            2.000001024989524            0.000003094355738  
          9.189341556392495            2.000005210864470            0.000001036256305  
          9.310285772717744            2.000008039085761            0.000000269079920  
          9.431229989042995            2.000009580571414            0.000000695524340  
          9.552174205368244            2.000011916048383            0.000000216708849  
          9.673118421693495            2.000011622829653            0.000002237450189  
          9.794062638018746            2.000011792671584            0.000003643312692  
          9.915006854343995            2.000015609428189            0.000001236716166  
         10.035951070669245            2.000017718326294            0.000000360166810  
         10.156895286994494            2.000018259621544            0.000000856085715  
         10.277839503319745            2.000019665515866            0.000000285598967  
         10.398783719644994            2.000017794715377            0.000002785380697  
         10.519727935970245            2.000016596327199            0.000004395334858  
         10.640672152295496            2.000019720551555            0.000001465048069  
         10.761616368620745            2.000020676392627            0.000000487505147  
         10.882560584945995            2.000019829626794            0.000001092125915  
         11.003504801271244            2.000020091614136            0.000000375142140  
         11.124449017596495            2.000016374525691            0.000003433698998  
         11.245393233921744            2.000013639595899            0.000005307738379  
         11.366337450246995            2.000016211823693            0.000001685652657  
         11.487281666572246            2.000016029721838            0.000000642980125  
         11.608225882897495            2.000013900387181            0.000001378509982  
         11.729170099222745            2.000013262403442            0.000000473250111  
         11.850114315547994            2.000007952058632            0.000004109488392  
         11.971058531873245            2.000004004699761            0.000006261432319  
         12.092002748198494            2.000006516306414            0.000001855976589  
         12.212946964523745            2.000005610045663            0.000000789855150  
         12.333891180848996            2.000002704675876            0.000001656224870  
         12.454835397174245            2.000001712200372            0.000000569726013  
         12.575779613499495            1.999995483332226            0.000004700729475  
         12.696723829824744            1.999990992040049            0.000007088118458  
         12.817668046149995            1.999994044871491            0.000001952405757  
         12.938612262475244            1.999993068828065            0.000000885796741  
         13.059556478800495            1.999990117434912            0.000001847695033  
         13.180500695125746            1.999989403138110            0.000000653911598  
         13.301444911450995            1.999983110525610            0.000005137161838  
         13.422389127776245            1.999978908130752            0.000007639992065  
         13.543333344101494            1.999983004116575            0.000001979887142  
         13.664277560426745            1.999982646086702            0.000000921925401  
         13.785221776751994            1.999980397869562            0.000001910945912  
         13.906165993077245            1.999980519591031            0.000000710738906  
         14.027110209402496            1.999974910634375            0.000005429957037  
         14.148054425727745            1.999971737331413            0.000007906024466  
         14.268998642052996            1.999977200807618            0.000001955947700  
         14.389942858378244            1.999977958830090            0.000000923119320  
         14.510887074703495            1.999976936066463            0.000001881523960  
         14.631831291028744            1.999978240253515            0.000000737049226  
         14.752775507353995            1.999973700629801            0.000005655138551  
         14.873719723679246            1.999971915438393            0.000008028758616  
         14.994663940004495            1.999978833265829            0.000001914990991  
         15.115608156329746            1.999980825636304            0.000000929576614  
         15.236552372654995            1.999981113194508            0.000001836652414  
         15.357496588980245            1.999983581623982            0.000000750844682  
         15.478440805305494            1.999979940478966            0.000005944078171  
         15.599385021630745            1.999979384334389            0.000008198909846  
         15.720329237955996            1.999987509466802            0.000001911937526  
         15.841273454281245            1.999990388645493            0.000000986451895  
         15.962217670606496            1.999991573524893            0.000001842656494  
         16.083161886931745            1.999994752059454            0.000000782415057  
         16.204106103256994            1.999991259546112            0.000006444655774  
         16.325050319582246            1.999991310393404            0.000008582504698  
         16.445994535907495            2.000000090937344            0.000001996165028  
         16.566938752232744            2.000003132688573            0.000001127870518  
         16.687882968557997            2.000004429522855            0.000001950316877  
         16.808827184883246            2.000007566579028            0.000000867159913  
         16.929771401208495            2.000003153109848            0.000007246937773  
         17.050715617533744            2.000002929441301            0.000009316864150  
         17.171659833858996            2.000011789576870            0.000002173955042  
         17.292604050184245            2.000014163631648            0.000001370354694  
         17.413548266509494            2.000014725042504            0.000002203830248  
         17.534492482834747            2.000017119504913            0.000001027037043  
         17.655436699159996            2.000010815756862            0.000008361757842  
         17.776380915485245            2.000009542273549            0.000010455728379  
         17.897325131810494            2.000018203779506            0.000002408213917  
         18.018269348135746            2.000019296955849            0.000001719136045  
         18.139213564460995            2.000018582604731            0.000002609641367  
         18.260157780786244            2.000019899835971            0.000001253910344  
         18.381101997111497            2.000011181545065            0.000009724048858  
         18.502046213436746            2.000008549878074            0.000011885847779  
         18.622990429761995            2.000017121747237            0.000002641422997  
         18.743934646087244            2.000016751787511            0.000002145341621  
         18.864878862412496            2.000014726118774            0.000003105173895  
         18.985823078737745            2.000015075665396            0.000001517661902  
         19.106767295062994            2.000004052767288            0.000011145180967  
         19.227711511388247            2.000000301097942            0.000013342462745  
         19.348655727713496            2.000009154884226            0.000002806333974  
         19.469599944038745            2.000007610210279            0.000002555805801  
         19.590544160363994            2.000004695674828            0.000003565123661  
         19.711488376689246            2.000004502633731            0.000001780256641  
         19.832432593014495            1.999991912066119            0.000012336861424  
         19.953376809339744            1.999987672351396            0.000014491908972  
         20.074321025664997            1.999997210014543            0.000002856482661  
         20.195265241990246            1.999995137315834            0.000002831775729  
         20.316209458315495            1.999992039584916            0.000003840726809  
         20.437153674640744            1.999991840586648            0.000002000694641  
         20.558097890965996            1.999978784325469            0.000013079159109  
         20.679042107291245            1.999974892125155            0.000015062918128  
         20.799986323616494            1.999985363535267            0.000002790571106  
         20.920930539941747            1.999983545790011            0.000002920696832  
         21.041874756266996            1.999981050561904            0.000003850586485  
         21.162818972592245            1.999981356755006            0.000002139919708  
         21.283763188917494            1.999968897766850            0.000013356406353  
         21.404707405242746            1.999966148545627            0.000015030498227  
         21.525651621567995            1.999977666946202            0.000002636614352  
         21.646595837893244            1.999976755612113            0.000002865906179  
         21.767540054218497            1.999975477908565            0.000003658214678  
         21.888484270543746            1.999976683839949            0.000002193052558  
         22.009428486868995            1.999965489443356            0.000013341757493  
         22.130372703194244            1.999964334691092            0.000014660368815  
         22.251316919519496            1.999976943553659            0.000002445448049  
         22.372261135844745            1.999977223204408            0.000002769424804  
         22.493205352169994            1.999977377801034            0.000003419045560  
         22.614149568495247            1.999979613827734            0.000002203999924  
         22.735093784820496            1.999969693703820            0.000013335630908  
         22.856038001145745            1.999970088536862            0.000014324674232  
         22.976982217470994            1.999983688431931            0.000002288090549  
         23.097926433796246            1.999984932139826            0.000002754841425  
         23.218870650121495            1.999986250762287            0.000003269777928  
         23.339814866446744            1.999989244494495            0.000002236752822  
         23.460759082771997            1.999979858578968            0.000013675663813  
         23.581703299097246            1.999981326714103            0.000014321128039  
         23.702647515422495            1.999995589106947            0.000002231291932  
         23.823591731747744            1.999997089450711            0.000002925907975  
         23.944535948072996            1.999998906880323            0.000003291102222  
         24.065480164398245            2.000002008571546            0.000002360044128  
         24.186424380723494            1.999991899034731            0.000014594932261  
         24.307368597048747            1.999993693490453            0.000014842998032  
         24.428312813373996            2.000008195276674            0.000002301278507  
         24.549257029699245            2.000009012218833            0.000003331941679  
         24.670201246024494            2.000010509483775            0.000003533941492  
         24.791145462349750            2.000012970553744            0.000002631979654  
         24.912089678674999            2.000000863364528            0.000016136320565  
         25.033033895000248            2.000002236076373            0.000015965276505  
         25.153978111325497            2.000016752780906            0.000002467420378  
         25.274922327650749            2.000016069640727            0.000003970402110  
         25.395866543975998            2.000016623696847            0.000004008978154  
         25.516810760301247            2.000017961200768            0.000003060476728  
         25.637754976626500            2.000003033727401            0.000018166191576  
         25.758699192951749            2.000003595514283            0.000017548728661  
         25.879643409276998            2.000018217284627            0.000002666109632  
         26.000587625602247            2.000015639191415            0.000004774959612  
         26.121531841927499            2.000015083477411            0.000004636834267  
         26.242476058252748            2.000015246026024            0.000003595332971  
         26.363420274577997            1.999997431454140            0.000020349112217  
         26.484364490903250            1.999997301670044            0.000019225612366  
         26.605308707228499            2.000012301026036            0.000002822805011  
         26.726252923553748            2.000008000721773            0.000005572692889  
         26.847197139878997            2.000006633010193            0.000005239481693  
         26.968141356204249            2.000005920248898            0.000004151269620  
         27.089085572529498            1.999986001207295            0.000022174578751  
