#           time (fs)    |     mu_x (e.angstrom)   |     mu_y (e.angstrom)   |     mu_z (e.angstrom)   |
        0.000000000000000       -0.000000000000000       -0.000000000000000        0.000000000000000
        0.002418884326505        0.000000000055801        0.000000000233949       -0.000002249782854
        0.004837768653010        0.000000000224040        0.000000000939181       -0.000004519471443
        0.007256652979515        0.000000000502252        0.000000002105538       -0.000006752685168
        0.009675537306020        0.000000000892975        0.000000003743376       -0.000009006285646
        0.012094421632525        0.000000001386914        0.000000005814121       -0.000011188465154
        0.014513305959030        0.000000001991846        0.000000008349873       -0.000013391984264
        0.016932190285535        0.000000002688423        0.000000011270141       -0.000015491092377
        0.019351074612040        0.000000003493071        0.000000014643051       -0.000017612945298
        0.021769958938545        0.000000004373509        0.000000018334122       -0.000019599881193
        0.024188843265050        0.000000005357894        0.000000022460439       -0.000021611389949
        0.026607727591555        0.000000006398572        0.000000026823298       -0.000023460444891
        0.029026611918060        0.000000007538093        0.000000031599895       -0.000025336284533
        0.031445496244565        0.000000008711517        0.000000036519285       -0.000027025537503
        0.033864380571070        0.000000009977928        0.000000041827746       -0.000028744122816
        0.036283264897575        0.000000011253788        0.000000047176608       -0.000030255769632
        0.038702149224080        0.000000012616255        0.000000052887685       -0.000031799576130
        0.041121033550585        0.000000013962554        0.000000058531881       -0.000033120186738
        0.043539917877090        0.000000015388788        0.000000064510216       -0.000034476000751
        0.045958802203595        0.000000016773007        0.000000070313428       -0.000035596700532
        0.048377686530100        0.000000018230422        0.000000076422415       -0.000036755794355
        0.050796570856605        0.000000019620702        0.000000082251096       -0.000037672366532
        0.053215455183110        0.000000021077585        0.000000088357794       -0.000038630595842
        0.055634339509615        0.000000022443898        0.000000094086055       -0.000039343503362
        0.058053223836120        0.000000023870558        0.000000100066002       -0.000040101325341
        0.060472108162625        0.000000025185822        0.000000105580322       -0.000040615651930
        0.062890992489130        0.000000026555697        0.000000111322164       -0.000041178063881
        0.065309876815635        0.000000027796834        0.000000116525795       -0.000041503375266
        0.067728761142140        0.000000029087514        0.000000121935597       -0.000041879774763
        0.070147645468645        0.000000030236403        0.000000126752573       -0.000042029902402
        0.072566529795150        0.000000031430565        0.000000131757709       -0.000042233871328
        0.074985414121655        0.000000032474875        0.000000136136346       -0.000042226622237
        0.077404298448160        0.000000033561084        0.000000140688879       -0.000042275638305
        0.079823182774665        0.000000034494970        0.000000144604671       -0.000042132435777
        0.082242067101170        0.000000035468339        0.000000148684121       -0.000042047516328
        0.084660951427675        0.000000036292971        0.000000152141967       -0.000041792977507
        0.087079835754180        0.000000037155664        0.000000155757403       -0.000041598261480
        0.089498720080685        0.000000037879576        0.000000158793085       -0.000041259718767
        0.091917604407190        0.000000038641125        0.000000161984464       -0.000040981993784
        0.094336488733695        0.000000039280386        0.000000164665342       -0.000040588968011
        0.096755373060200        0.000000039957823        0.000000167504066       -0.000040257150396
        0.099174257386705        0.000000040536001        0.000000169928935       -0.000039840784477
        0.101593141713210        0.000000041153796        0.000000172517581       -0.000039485360848
        0.104012026039715        0.000000041701724        0.000000174815700       -0.000039077823302
        0.106430910366220        0.000000042291521        0.000000177286917       -0.000038730262989
        0.108849794692725        0.000000042846868        0.000000179616189       -0.000038364131233
        0.111268679019230        0.000000043447021        0.000000182130763       -0.000038056279291
        0.113687563345735        0.000000044053659        0.000000184675105       -0.000037763912945
        0.116106447672240        0.000000044708583        0.000000187419220       -0.000037527373859
        0.118525331998745        0.000000045415776        0.000000190385143       -0.000037340288497
        0.120944216325250        0.000000046175106        0.000000193566873       -0.000037205810838
        0.123363100651755        0.000000047036520        0.000000197179350       -0.000037154062622
        0.125781984978260        0.000000047954109        0.000000201024444       -0.000037150934940
        0.128200869304765        0.000000049026672        0.000000205522114       -0.000037262526442
        0.130619753631270        0.000000050159429        0.000000210269142       -0.000037417994495
        0.133038637957775        0.000000051502052        0.000000215898960       -0.000037718311641
        0.135457522284280        0.000000052908661        0.000000221793920       -0.000038057026751
        0.137876406610785        0.000000054580849        0.000000228805333       -0.000038568316390
        0.140295290937290        0.000000056320371        0.000000236095808       -0.000039111824216
        0.142714175263795        0.000000058380754        0.000000244734593       -0.000039852721120
        0.145133059590300        0.000000060511155        0.000000253663579       -0.000040618999496
        0.147551943916805        0.000000063015962        0.000000264165446       -0.000041604110854
        0.149970828243310        0.000000065592593        0.000000274964975       -0.000042607164576
        0.152389712569815        0.000000068594103        0.000000287549078       -0.000043846719082
        0.154808596896320        0.000000071668162        0.000000300433762       -0.000045096238579
        0.157227481222825        0.000000075213164        0.000000315296243       -0.000046595806219
        0.159646365549330        0.000000078830163        0.000000330456877       -0.000048096896057
        0.162065249875835        0.000000082958464        0.000000347764593       -0.000049857183511
        0.164484134202340        0.000000087156756        0.000000365361949       -0.000051610165518
        0.166903018528845        0.000000091899749        0.000000385246508       -0.000053626890920
        0.169321902855350        0.000000096709125        0.000000405405463       -0.000055627185523
        0.171740787181855        0.000000102088481        0.000000427957706       -0.000057891034991
        0.174159671508360        0.000000107528876        0.000000450761828       -0.000060129123102
        0.176578555834865        0.000000113555363        0.000000476026890       -0.000062625790153
        0.178997440161370        0.000000119635707        0.000000501513608       -0.000065087256609
        0.181416324487875        0.000000126308176        0.000000529486666       -0.000067797564211
        0.183835208814380        0.000000133025409        0.000000557643153       -0.000070463222454
        0.186254093140885        0.000000140329970        0.000000588265981       -0.000073363326120
        0.188672977467390        0.000000147668254        0.000000619025837       -0.000076209422489
        0.191091861793895        0.000000155577670        0.000000652184250       -0.000079271091493
        0.193510746120400        0.000000163507812        0.000000685425093       -0.000082269586179
        0.195929630446905        0.000000171981121        0.000000720947374       -0.000085460558713
        0.198348514773410        0.000000180460229        0.000000756489398       -0.000088579479175
        0.200767399099915        0.000000189442614        0.000000794145752       -0.000091863886015
        0.203186283426420        0.000000198414005        0.000000831751337       -0.000095067747491
        0.205605167752925        0.000000207836924        0.000000871254428       -0.000098406597647
        0.208024052079430        0.000000217230282        0.000000910628806       -0.000101656884238
        0.210442936405935        0.000000227011856        0.000000951635392       -0.000105008605025
        0.212861820732440        0.000000236743657        0.000000992428422       -0.000108264303891
        0.215280705058945        0.000000246789322        0.000001034542091       -0.000111585326952
        0.217699589385450        0.000000256763514        0.000001076351121       -0.000114803507214
        0.220118473711955        0.000000266966935        0.000001119126112       -0.000118048891272
        0.222537358038460        0.000000277075878        0.000001161499912       -0.000121185318524
        0.224956242364965        0.000000287320105        0.000001204445967       -0.000124309399006
        0.227375126691470        0.000000297445754        0.000001246889688       -0.000127319175695
        0.229794011017975        0.000000307604615        0.000001289477891       -0.000130276230929
        0.232212895344480        0.000000317619931        0.000001331458991       -0.000133114452457
        0.234631779670985        0.000000327559635        0.000001373128491       -0.000135859375841
        0.237050663997490        0.000000337330212        0.000001414083533       -0.000138481791934
        0.239469548323995        0.000000346911145        0.000001454249070       -0.000140970759357
        0.241888432650500        0.000000356297012        0.000001493591298       -0.000143334430161
        0.244307316977005        0.000000365375692        0.000001531651398       -0.000145525552014
        0.246726201303510        0.000000374233278        0.000001568778969       -0.000147589488426
        0.249145085630015        0.000000382664437        0.000001604124675       -0.000149443435775
        0.251563969956520        0.000000390848660        0.000001638429408       -0.000151169213753
        0.253982854283025        0.000000398487424        0.000001670453409       -0.000152649808624
        0.256401738609530        0.000000405853864        0.000001701329910       -0.000154002147635
        0.258820622936035        0.000000412557983        0.000001729435905       -0.000155076907947
        0.261239507262540        0.000000418965115        0.000001756290905       -0.000156024204250
        0.263658391589045        0.000000424597213        0.000001779903026       -0.000156664834636
        0.266077275915550        0.000000429908643        0.000001802164770       -0.000157179640835
        0.268496160242055        0.000000434338444        0.000001820736918       -0.000157362461450
        0.270915044568560        0.000000438425119        0.000001837864432       -0.000157421904592
        0.273333928895065        0.000000441531610        0.000001850889329       -0.000157128211006
        0.275752813221570        0.000000444273961        0.000001862381398       -0.000156714342481
        0.278171697548075        0.000000445947443        0.000001869399198       -0.000155930690851
        0.280590581874580        0.000000447237419        0.000001874802886       -0.000155030762454
        0.283009466201085        0.000000447381414        0.000001875409179       -0.000153749175382
        0.285428350527590        0.000000447124364        0.000001874327726       -0.000152355837070
        0.287847234854095        0.000000445657347        0.000001868180776       -0.000150573926807
        0.290266119180600        0.000000443773718        0.000001860280715       -0.000148685342955
        0.292685003507105        0.000000440630624        0.000001847107781       -0.000146406349970
        0.295103887833610        0.000000437057441        0.000001832125140       -0.000144026232237
        0.297522772160115        0.000000432190922        0.000001811727762       -0.000141258978519
        0.299941656486620        0.000000426883015        0.000001789473207       -0.000138396534782
        0.302360540813125        0.000000420264426        0.000001761731326       -0.000135155292629
        0.304779425139630        0.000000413195382        0.000001732094149       -0.000131825092809
        0.307198309466135        0.000000404815467        0.000001696968975       -0.000128129371216
        0.309617193792640        0.000000395978279        0.000001659919825       -0.000124351132143
        0.312036078119145        0.000000385847534        0.000001617455375       -0.000120225384254
        0.314454962445650        0.000000375254940        0.000001573047658       -0.000116023677059
        0.316873846772155        0.000000363403654        0.000001523370918       -0.000111496933404
        0.319292731098660        0.000000351088138        0.000001471740823       -0.000106900818151
        0.321711615425165        0.000000337566095        0.000001415060500       -0.000102006251611
        0.324130499751670        0.000000323579565        0.000001356425632       -0.000097048845089
        0.326549384078175        0.000000308455412        0.000001293029501       -0.000091823274627
        0.328968268404680        0.000000292868534        0.000001227686107       -0.000086541258283
        0.331387152731185        0.000000276228818        0.000001157936977       -0.000081024599485
        0.333806037057690        0.000000259130035        0.000001086255811       -0.000075457675468
        0.336224921384195        0.000000241077921        0.000001010586154       -0.000069692346791
        0.338643805710700        0.000000222572148        0.000000933007020       -0.000063882650910
        0.341062690037205        0.000000203225842        0.000000851912356       -0.000057912945249
        0.343481574363710        0.000000183432868        0.000000768937410       -0.000051904426349
        0.345900458690215        0.000000162923761        0.000000682968530       -0.000045775858125
        0.348319343016720        0.000000141976383        0.000000595154453       -0.000039613633927
        0.350738227343225        0.000000120446953        0.000000504908614       -0.000033372272244
        0.353157111669730        0.000000098488865        0.000000412857769       -0.000027101972087
        0.355575995996235        0.000000076090363        0.000000318969006       -0.000020793770783
        0.357994880322740        0.000000053273843        0.000000223319728       -0.000014460875889
        0.360413764649245        0.000000030163809        0.000000126448442       -0.000008131011316
        0.362832648975750        0.000000006647232        0.000000027864632       -0.000001780203267
        0.365251533302255       -0.000000017013114       -0.000000071313358        0.000004527569488
        0.367670417628760       -0.000000041067880       -0.000000172153165        0.000010853041530
        0.370089301955265       -0.000000065116336       -0.000000272957923        0.000017097003562
        0.372508186281770       -0.000000089546618       -0.000000375371817        0.000023355926676
        0.374927070608275       -0.000000113822731       -0.000000477130734        0.000029496971395
        0.377345954934780       -0.000000138467767       -0.000000580444815        0.000035650734010
        0.379764839261285       -0.000000162815544       -0.000000682503990        0.000041652895199
        0.382183723587790       -0.000000187519179       -0.000000786063675        0.000047666004390
        0.384602607914295       -0.000000211789741       -0.000000887799020        0.000053496927695
        0.387021492240800       -0.000000236403056       -0.000000990980056        0.000059337470355
        0.389440376567305       -0.000000260457169       -0.000001091807918        0.000064968820629
        0.391859260893810       -0.000000284840990       -0.000001194026900        0.000070608861127
        0.394278145220315       -0.000000308551434       -0.000001293413993        0.000076016659144
        0.396697029546820       -0.000000332578671       -0.000001394138179        0.000081432567132
        0.399115913873325       -0.000000355832403       -0.000001491610633        0.000086597450320
        0.401534798199830       -0.000000379390181       -0.000001590366865        0.000091770153497
        0.403953682526335       -0.000000402090232       -0.000001685518203        0.000096677556614
        0.406372566852840       -0.000000425081764       -0.000001781900757        0.000101592714517
        0.408791451179345       -0.000000447148853       -0.000001874398648        0.000106232967503
        0.411210335505850       -0.000000469495014       -0.000001968075847        0.000110881063663
        0.413629219832355       -0.000000490868829       -0.000002057667468        0.000115249405292
        0.416048104158860       -0.000000512509407       -0.000002148386913        0.000119625756484
        0.418466988485365       -0.000000533149525       -0.000002234902817        0.000123722263800
        0.420885872811870       -0.000000554044112       -0.000002322495123        0.000127826946465
        0.423304757138375       -0.000000573930540       -0.000002405851504        0.000131656381415
        0.425723641464880       -0.000000594059040       -0.000002490232433        0.000135494076695
        0.428142525791385       -0.000000613192356       -0.000002570431717        0.000139065652724
        0.430561410117890       -0.000000632555099       -0.000002651602656        0.000142645412931
        0.432980294444395       -0.000000650956188       -0.000002728732386        0.000145972485634
        0.435399178770900       -0.000000669573639       -0.000002806779120        0.000149307426251
        0.437818063097405       -0.000000687283010       -0.000002881009113        0.000152407113443
        0.440236947423910       -0.000000705195067       -0.000002956098894        0.000155514035996
        0.442655831750415       -0.000000722271773       -0.000003027676696        0.000158406773741
        0.445074716076920       -0.000000739536668       -0.000003100053622        0.000161305726051
        0.447493600403425       -0.000000756056832       -0.000003169298323        0.000164014768235
        0.449912484729930       -0.000000772749637       -0.000003239277093        0.000166728549570
        0.452331369056435       -0.000000788804595       -0.000003306571568        0.000169279419579
        0.454750253382940       -0.000000805015368       -0.000003374529689        0.000171833039180
        0.457169137709445       -0.000000820709478       -0.000003440311394        0.000174252943018
        0.459588022035950       -0.000000836541061       -0.000003506679964        0.000176673041224
        0.462006906362455       -0.000000851989194       -0.000003571430422        0.000178990252074
        0.464425790688960       -0.000000867554706       -0.000003636683625        0.000181304493932
        0.466844675015465       -0.000000882879467       -0.000003700916774        0.000183547718632
        0.469263559341970       -0.000000898299534       -0.000003765560257        0.000185784170309
        0.471682443668475       -0.000000913628254       -0.000003829809854        0.000187981908545
