#           time (fs)       | force (atom_1) (H/b)   |  force (atom_2) (H/b)  |           ...          |  force (atom_N) (H/b)  |
        0.000000000000000       -0.000000000000000       -0.000000000000000       -0.001977038000788       -0.000000000000000       -0.000000000000000        0.001977038000788
        0.120944216325250        0.000003048273550       -0.000027638175099       -0.002151828777845       -0.000003048273550        0.000027638175049        0.002151828777845
        0.241888432650500        0.000006471356137       -0.000116139870594       -0.002283390378290       -0.000006471356137        0.000116139870504        0.002283390378290
        0.362832648975750        0.000010088868615       -0.000050958266549       -0.002372518491904       -0.000010088868615        0.000050958266524        0.002372518491904
        0.483776865301000        0.000013687529448       -0.000107456811270       -0.002413459452484       -0.000013687529448        0.000107456811323        0.002413459452484
        0.604721081626250        0.000017109729185       -0.000297124297715       -0.002412947386010       -0.000017109729185        0.000297124297712        0.002412947386010
        0.725665297951500        0.000020097550301       -0.000149328395009       -0.002361455798959       -0.000020097550301        0.000149328394921        0.002361455798959
        0.846609514276750        0.000022509818107       -0.000126671908405       -0.002266671484776       -0.000022509818107        0.000126671908491        0.002266671484776
        0.967553730602000        0.000024213941599       -0.000439405345283       -0.002133192787775       -0.000024213941599        0.000439405345662        0.002133192787775
        1.088497946927250        0.000024945423266       -0.000298607655716       -0.001953241609671       -0.000024945423266        0.000298607656346        0.001953241609671
        1.209442163252500        0.000024558477821       -0.000104900959285       -0.001730511896657       -0.000024558477821        0.000104900959169        0.001730511896657
        1.330386379577750        0.000023103286544       -0.000474017862485       -0.001479897790152       -0.000023103286544        0.000474017861548        0.001479897790152
        1.451330595903000        0.000020129739433       -0.000466691217038       -0.001181942303150       -0.000020129739433        0.000466691215365        0.001181942303150
        1.572274812228250        0.000015760591871       -0.000082988519635       -0.000854215691511       -0.000015760591871        0.000082988519299        0.000854215691511
        1.693219028553500        0.000010133958982       -0.000366337862735       -0.000510032350788       -0.000010133958982        0.000366337864016        0.000510032350788
        1.814163244878750        0.000002906649147       -0.000594419706869       -0.000136540763895       -0.000002906649147        0.000594419709784        0.000136540763895
        1.935107461204000       -0.000005907840231       -0.000102226644862        0.000260194825452        0.000005907840231        0.000102226646484       -0.000260194825452
        2.056051677529250       -0.000016014614738       -0.000131862821291        0.000663874534147        0.000016014614738        0.000131862819787       -0.000663874534147
        2.176995893854500       -0.000027741161136       -0.000609734544379        0.001086186230443        0.000027741161136        0.000609734540502       -0.001086186230443
        2.297940110179750       -0.000040887430420       -0.000178040192378        0.001516788830349        0.000040887430420        0.000178040188469       -0.001516788830349
        2.418884326505000       -0.000055287425526        0.000167735397911        0.001948603277493        0.000055287425526       -0.000167735396753       -0.001948603277493
        2.539828542830250       -0.000070534986974       -0.000460278410950        0.002367828788027        0.000070534986974        0.000460278415210       -0.002367828788027
        2.660772759155500       -0.000086760872940       -0.000292228797975        0.002780368333629        0.000086760872940        0.000292228804297       -0.002780368333629
        2.781716975480750       -0.000104239582866        0.000437558414763        0.003195497886178        0.000104239582866       -0.000437558414729       -0.003195497886178
        2.902661191806000       -0.000122087790982       -0.000136259081594        0.003586923721266        0.000122087790982        0.000136259077233       -0.003586923721266
        3.023605408131250       -0.000140112167363       -0.000386422880663        0.003952006063860        0.000140112167363        0.000386422872172       -0.003952006063860
        3.144549624456500       -0.000159519376532        0.000592816773864        0.004326472692229        0.000159519376532       -0.000592816776332       -0.004326472692229
        3.265493840781750       -0.000178125173956        0.000314980702142        0.004652189213759        0.000178125173956       -0.000314980697908       -0.004652189213759
        3.386438057107000       -0.000195512016999       -0.000390012966499        0.004923811664048        0.000195512016999        0.000390012975855       -0.004923811664048
        3.507382273432250       -0.000214167758512        0.000574232508765        0.005207375531909        0.000214167758512       -0.000574232502946       -0.005207375531909
        3.628326489757500       -0.000231980605557        0.000787704047467        0.005451990670029        0.000231980605557       -0.000787704051024       -0.005451990670029
        3.749270706082750       -0.000247194500396       -0.000243345465208        0.005621435613368        0.000247194500396        0.000243345455238       -0.005621435613368
        3.870214922408000       -0.000263703148793        0.000393026456780        0.005808487343091        0.000263703148793       -0.000393026465996       -0.005808487343091
        3.991159138733250       -0.000278973780033        0.001155630674470        0.005957412845749        0.000278973780033       -0.001155630672892       -0.005957412845749
        4.112103355058500       -0.000289782013051        0.000068355940796        0.006004631230370        0.000289782013051       -0.000068355930454       -0.006004631230370
        4.233047571383750       -0.000300638791308        0.000105163524220        0.006049741172615        0.000300638791308       -0.000105163512320       -0.006049741172615
        4.353991787709000       -0.000311348170632        0.001288034744329        0.006089010104846        0.000311348170632       -0.001288034742520       -0.006089010104846
        4.474936004034250       -0.000316841125984        0.000490469908074        0.006026452781933        0.000316841125984       -0.000490469918510       -0.006026452781933
        4.595880220359500       -0.000321552504938       -0.000180653115300        0.005952293248843        0.000321552504938        0.000180653101102       -0.005952293248843
        4.716824436684750       -0.000326682563375        0.001122113070051        0.005889087981904        0.000326682563375       -0.001122113075733       -0.005889087981904
        4.837768653010000       -0.000326158003182        0.000918545433978        0.005729199337831        0.000326158003182       -0.000918545424981       -0.005729199337831
        4.958712869335250       -0.000321917250873       -0.000366591357490        0.005513159912183        0.000321917250873        0.000366591374366       -0.005513159912183
        5.079657085660500       -0.000318983740638        0.000650999554046        0.005329001947395        0.000318983740638       -0.000650999545029       -0.005329001947395
        5.200601301985750       -0.000312068143131        0.001192150196600        0.005088217646940        0.000312068143131       -0.001192150201849       -0.005088217646940
        5.321545518311000       -0.000300520395145       -0.000386586281902        0.004784486457853        0.000300520395145        0.000386586262590       -0.004784486457853
        5.442489734636251       -0.000289979264230       -0.000025001292892        0.004509920256050        0.000289979264230        0.000025001281206       -0.004509920256050
        5.563433950961501       -0.000277979292165        0.001188342889273        0.004225132139401        0.000277979292165       -0.001188342889107       -0.004225132139401
        5.684378167286750       -0.000258846900949       -0.000241605202087        0.003846563098249        0.000258846900949        0.000241605222410       -0.003846563098249
        5.805322383612000       -0.000238756308493       -0.000766922126479        0.003470198340605        0.000238756308493        0.000766922141754       -0.003470198340605
        5.926266599937250       -0.000220903155270        0.000803627980527        0.003141452345267        0.000220903155270       -0.000803627976119       -0.003141452345267
        6.047210816262500       -0.000198034229667       -0.000017264391630        0.002756450127870        0.000198034229667        0.000017264374294       -0.002756450127870
        6.168155032587750       -0.000171536037345       -0.001396538361041        0.002337717115557        0.000171536037345        0.001396538341401       -0.002337717115557
        6.289099248913001       -0.000151077344259        0.000072950149228        0.002016516200389        0.000151077344259       -0.000072950156821       -0.002016516200389
        6.410043465238251       -0.000127215879169        0.000170484760111        0.001663576399873        0.000127215879169       -0.000170484748946       -0.001663576399873
        6.530987681563500       -0.000094903047796       -0.001775924883585        0.001216209861251        0.000094903047796        0.001775924907805       -0.001216209861251
        6.651931897888750       -0.000070209204336       -0.000912700232817        0.000882007410713        0.000070209204336        0.000912700243855       -0.000882007410713
        6.772876114214000       -0.000049039052807        0.000158427640226        0.000604071566534        0.000049039052807       -0.000158427643958       -0.000604071566534
        6.893820330539250       -0.000017145868202       -0.001839104387731        0.000207151875579        0.000017145868202        0.001839104362586       -0.000207151875579
        7.014764546864500        0.000006330766439       -0.001928811577381       -0.000075036209640       -0.000006330766439        0.001928811561433        0.000075036209640
        7.135708763189751        0.000020781185112       -0.000126238005240       -0.000241705517498       -0.000020781185112        0.000126238002558        0.000241705517498
        7.256652979515001        0.000048189913541       -0.001595877085731       -0.000550141589804       -0.000048189913541        0.001595877107618        0.000550141589804
        7.377597195840250        0.000071967650175       -0.002759084893645       -0.000806597439225       -0.000071967650175        0.002759084916285        0.000806597439225
        7.498541412165500        0.000079737943395       -0.000730396853235       -0.000877571234797       -0.000079737943395        0.000730396862009        0.000877571234797
        7.619485628490750        0.000096161823559       -0.001178527029103       -0.001039470009832       -0.000096161823559        0.001178527013813        0.001039470009832
        7.740429844816000        0.000112427015887       -0.003178242429924       -0.001193887271170       -0.000112427015887        0.003178242402737        0.001193887271170
        7.861374061141250        0.000110159330351       -0.001525717755179       -0.001149439870561       -0.000110159330351        0.001525717738140        0.001149439870561
        7.982318277466501        0.000110377905196       -0.000717185263765       -0.001131895056126       -0.000110377905196        0.000717185272004        0.001131895056126
        8.103262493791750        0.000119288770137       -0.003064461797950       -0.001202450271439       -0.000119288770137        0.003064461825112        0.001202450271439
        8.224206710117000        0.000111713027446       -0.002356976699415       -0.001107126473893       -0.000111713027446        0.002356976727553        0.001107126473893
        8.345150926442249        0.000095021477410       -0.000420511856854       -0.000926022020551       -0.000095021477410        0.000420511856114        0.000926022020551
        8.466095142767500        0.000088372823260       -0.002422839918336       -0.000847037638794       -0.000088372823260        0.002422839895392        0.000847037638794
        8.587039359092751        0.000072237275558       -0.002952214172222       -0.000681092434402       -0.000072237275558        0.002952214133458        0.000681092434402
        8.707983575418000        0.000036162039651       -0.000346070748711       -0.000335453516836       -0.000036162039651        0.000346070738331        0.000335453516836
        8.828927791743251        0.000013358284808       -0.001362513070904       -0.000121937183796       -0.000013358284808        0.001362513088489        0.000121937183796
        8.949872008068500       -0.000005099569879       -0.003105008543451        0.000045814914086        0.000005099569879        0.003105008586301       -0.000045814914086
        9.070816224393750       -0.000051547874279       -0.000560526523502        0.000455852881333        0.000051547874279        0.000560526551079       -0.000455852881333
        9.191760440718999       -0.000093765332235       -0.000154953223117        0.000816337073981        0.000093765332235        0.000154953209633       -0.000816337073981
        9.312704657044250       -0.000119561311804       -0.002660614425039        0.001024934560135        0.000119561311804        0.002660614385030       -0.001024934560135
        9.433648873369501       -0.000176101024426       -0.000900241380537        0.001486648596772        0.000176101024426        0.000900241332176       -0.001486648596772
        9.554593089694750       -0.000236357183043        0.000972090185562        0.001965246390514        0.000236357183043       -0.000972090178303       -0.001965246390514
        9.675537306020001       -0.000265774952151       -0.001602133231565        0.002176820964396        0.000265774952151        0.001602133263775       -0.002176820964396
        9.796481522345250       -0.000317387020352       -0.001225972137881        0.002561031056670        0.000317387020352        0.001225972201889       -0.002561031056670
        9.917425738670500       -0.000388402161030        0.001710515260238        0.003088010669437        0.000388402161030       -0.001710515253648       -0.003088010669437
       10.038369954995749       -0.000426824341785       -0.000101999800412        0.003344029419252        0.000426824341785        0.000101999773231       -0.003344029419252
       10.159314171321000       -0.000475621847744       -0.001268117950586        0.003672455275552        0.000475621847744        0.001268117880620       -0.003672455275552
       10.280258387646251       -0.000553238152039        0.002001753913867        0.004210449606475        0.000553238152039       -0.002001753943791       -0.004210449606475
       10.401202603971500       -0.000599821578047        0.001606053615224        0.004499928439367        0.000599821578047       -0.001606053591275       -0.004499928439367
       10.522146820296751       -0.000633259790486       -0.000879078986106        0.004683556919802        0.000633259790486        0.000879079051161       -0.004683556919802
       10.643091036622000       -0.000700884793799        0.001790876176864        0.005110833630737        0.000700884793799       -0.001790876120618       -0.005110833630737
       10.764035252947250       -0.000754463951647        0.003096579647741        0.005424669740852        0.000754463951647       -0.003096579665866       -0.005424669740852
       10.884979469272501       -0.000781041942985        0.000015209266721        0.005537770330809        0.000781041942985       -0.000015209325643       -0.005537770330809
       11.005923685597750       -0.000836740168940        0.001324957611290        0.005850737689530        0.000836740168940       -0.001324957687988       -0.005850737689530
       11.126867901923001       -0.000896072200523        0.004121148533104        0.006179504657869        0.000896072200523       -0.004121148530247       -0.006179504657869
       11.247812118248250       -0.000911316336351        0.001340444373447        0.006198680097664        0.000911316336351       -0.001340444319136       -0.006198680097664
       11.368756334573501       -0.000938164232944        0.000800928216147        0.006294404213593        0.000938164232944       -0.000800928130482       -0.006294404213593
       11.489700550898750       -0.000989688023009        0.004353687691228        0.006550034556112        0.000989688023009       -0.004353687670250       -0.006550034556112
       11.610644767224001       -0.001004498887270        0.002812211725379        0.006558214584246        0.001004498887270       -0.002812211775819       -0.006558214584246
       11.731588983549251       -0.001009227747390        0.000527037280214        0.006500325779051        0.001009227747390       -0.000527037368879       -0.006500325779051
       11.852533199874500       -0.001051702402041        0.003875826026870        0.006682901105696        0.001051702402041       -0.003875826072323       -0.006682901105696
       11.973477416199751       -0.001067535454387        0.004155223156227        0.006692597690407        0.001067535454387       -0.004155223117115       -0.006692597690407
       12.094421632525000       -0.001041934979531        0.000655201312681        0.006444731630860        0.001041934979531       -0.000655201221220       -0.006444731630860
       12.215365848850251       -0.001054562865621        0.002745666505066        0.006435727658824        0.001054562865621       -0.002745666441859       -0.006435727658824
       12.336310065175500       -0.001072794880527        0.004905604245277        0.006459659632365        0.001072794880527       -0.004905604262751       -0.006459659632365
       12.457254281500751       -0.001033384022836        0.001201998446844        0.006139413360607        0.001033384022836       -0.001201998541361       -0.006139413360607
       12.578198497826001       -0.001021924741449        0.001386836408616        0.005990434686450        0.001021924741449       -0.001386836483639       -0.005990434686450
       12.699142714151250       -0.001043825576017        0.004916124432632        0.006037282314452        0.001043825576017       -0.004916124441456       -0.006037282314452
       12.820086930476501       -0.000994132222149        0.002068782996650        0.005673217100337        0.000994132222149       -0.002068782906110       -0.005673217100337
       12.941031146801750       -0.000942834865137        0.000090436356016        0.005308696839493        0.000942834865137       -0.000090436267550       -0.005308696839493
       13.061975363127001       -0.000954042231320        0.003971496270226        0.005300051848677        0.000954042231320       -0.003971496239292       -0.005300051848677
       13.182919579452250       -0.000910834507576        0.002895009770290        0.004992330175121        0.000910834507576       -0.002895009841381       -0.004992330175121
       13.303863795777501       -0.000838470802954       -0.000772019000189        0.004534110042959        0.000838470802954        0.000772018895538       -0.004534110042959
       13.424808012102751       -0.000841716145334        0.002369881790154        0.004490524072332        0.000841716145334       -0.002369881836553       -0.004490524072332
