#           time (fs)       | force (atom_1) (H/b)   |  force (atom_2) (H/b)  |           ...          |  force (atom_N) (H/b)  |
        0.000000000000000       -0.000000000000000       -0.000000000000000       -0.001977038000788       -0.000000000000000       -0.000000000000000        0.001977038000788
        0.120944216325250        0.000001391025331       -0.000013006684072       -0.001584167013138       -0.000001391025331        0.000013006684072        0.001584167012944
        0.241888432650500        0.000001809070892       -0.000016915594565       -0.001088338752739       -0.000001809070892        0.000016915594565        0.001088338752948
        0.362832648975750        0.000001237975954       -0.000011575606468       -0.000535804957820       -0.000001237975954        0.000011575606468        0.000535804957379
        0.483776865301000       -0.000000551477493        0.000005156547635        0.000133199700534        0.000000551477493       -0.000005156547635       -0.000133199700509
        0.604721081626250       -0.000003561142968        0.000033298221097        0.000797853197773        0.000003561142968       -0.000033298221097       -0.000797853197733
        0.725665297951500       -0.000007724166172        0.000072224274525        0.001402632584491        0.000007724166172       -0.000072224274525       -0.001402632583798
        0.846609514276750       -0.000013156832788        0.000123022038756        0.002031340098616        0.000013156832788       -0.000123022038756       -0.002031340098363
        0.967553730602000       -0.000020023877768        0.000187231854313        0.002746925481983        0.000020023877768       -0.000187231854313       -0.002746925480905
        1.088497946927250       -0.000027818501125        0.000260114932564        0.003464758347574        0.000027818501125       -0.000260114932564       -0.003464758347253
        1.209442163252500       -0.000037323917986        0.000348994655354        0.004198638968607        0.000037323917986       -0.000348994655354       -0.004198638968903
        1.330386379577750       -0.000047184309429        0.000441193560180        0.004782583750894        0.000047184309429       -0.000441193560180       -0.004782583752495
        1.451330595903000       -0.000058641384360        0.000548322133027        0.005425949204897        0.000058641384360       -0.000548322133027       -0.005425949206240
        1.572274812228250       -0.000070725952548        0.000661318035917        0.006085722729062        0.000070725952548       -0.000661318035917       -0.006085722730951
        1.693219028553500       -0.000083590693913        0.000781608889788        0.006734964982207        0.000083590693913       -0.000781608889788       -0.006734964982831
        1.814163244878750       -0.000097033613534        0.000907305958527        0.007297422166418        0.000097033613534       -0.000907305958527       -0.007297422165513
        1.935107461204000       -0.000110752244666        0.001035581059879        0.007769904482475        0.000110752244666       -0.001035581059879       -0.007769904479669
        2.056051677529250       -0.000124293913077        0.001162201477277        0.008177383880888        0.000124293913077       -0.001162201477277       -0.008177383878073
        2.176995893854500       -0.000138957660436        0.001299313806684        0.008697198519814        0.000138957660436       -0.001299313806684       -0.008697198517255
        2.297940110179750       -0.000152211825743        0.001423245946932        0.009063322108074        0.000152211825743       -0.001423245946932       -0.009063322107481
        2.418884326505000       -0.000166249601026        0.001554505175314        0.009385578601618        0.000166249601026       -0.001554505175314       -0.009385578603370
        2.539828542830250       -0.000179031182687        0.001674018454886        0.009597312800109        0.000179031182687       -0.001674018454886       -0.009597312803890
        2.660772759155500       -0.000191100866540        0.001786875186424        0.009737447892308        0.000191100866540       -0.001786875186424       -0.009737447896196
        2.781716975480750       -0.000203151052619        0.001899549604554        0.009978627568518        0.000203151052619       -0.001899549604554       -0.009978627571218
        2.902661191806000       -0.000213287405256        0.001994328856083        0.010059584653383        0.000213287405256       -0.001994328856083       -0.010059584653558
        3.023605408131250       -0.000222076581563        0.002076511426874        0.010012288070360        0.000222076581563       -0.002076511426874       -0.010012288067911
        3.144549624456500       -0.000230286123020        0.002153274169062        0.009966660644478        0.000230286123020       -0.002153274169062       -0.009966660640486
        3.265493840781750       -0.000235117838061        0.002198452776918        0.009748340320888        0.000235117838061       -0.002198452776918       -0.009748340316968
        3.386438057107000       -0.000240693594039        0.002250588495433        0.009704248057895        0.000240693594039       -0.002250588495433       -0.009704248055723
        3.507382273432250       -0.000242741028992        0.002269732895026        0.009454095015252        0.000242741028992       -0.002269732895026       -0.009454095015565
        3.628326489757500       -0.000242987634742        0.002272038759106        0.009082456931154        0.000242987634742       -0.002272038759106       -0.009082456933556
        3.749270706082750       -0.000242483018895        0.002267320393112        0.008764100282181        0.000242483018895       -0.002267320393112       -0.008764100285307
        3.870214922408000       -0.000237872648306        0.002224211446504        0.008279255876925        0.000237872648306       -0.002224211446504       -0.008279255879620
        3.991159138733250       -0.000233434023818        0.002182708400752        0.007952397128394        0.000233434023818       -0.002182708400752       -0.007952397129516
        4.112103355058500       -0.000225570401310        0.002109180152831        0.007453826149448        0.000225570401310       -0.002109180152831       -0.007453826149014
        4.233047571383750       -0.000214686162930        0.002007407855336        0.006810753782876        0.000214686162930       -0.002007407855336       -0.006810753781776
        4.353991787709000       -0.000203693151157        0.001904618472337        0.006281857728637        0.000203693151157       -0.001904618472337       -0.006281857727359
        4.474936004034250       -0.000188411980441        0.001761732964348        0.005614236370518        0.000188411980441       -0.001761732964348       -0.005614236370094
        4.595880220359500       -0.000173130028728        0.001618840154213        0.005084469179170        0.000173130028728       -0.001618840154213       -0.005084469179085
        4.716824436684750       -0.000155767368309        0.001456491823609        0.004448311178494        0.000155767368309       -0.001456491823609       -0.004448311178281
        4.837768653010000       -0.000134844952600        0.001260858256545        0.003668596691340        0.000134844952600       -0.001260858256545       -0.003668596690272
        4.958712869335250       -0.000115773061199        0.001082527883323        0.003078345545319        0.000115773061199       -0.001082527883323       -0.003078345543756
        5.079657085660500       -0.000092413935704        0.000864110021466        0.002370310345175        0.000092413935704       -0.000864110021466       -0.002370310343442
        5.200601301985750       -0.000070454767604        0.000658782379978        0.001810884718415        0.000070454767604       -0.000658782379978       -0.001810884717862
        5.321545518311000       -0.000046983067163        0.000439311901490        0.001171987976287        0.000046983067163       -0.000439311901490       -0.001171987977834
        5.442489734636251       -0.000021486491925        0.000200907977671        0.000437637064036        0.000021486491925       -0.000200907977671       -0.000437637067954
        5.563433950961501        0.000001244937199       -0.000011640644788       -0.000078719043882       -0.000001244937199        0.000011640644788        0.000078719039582
        5.684378167286750        0.000025910191669       -0.000242271371889       -0.000653921554232       -0.000025910191669        0.000242271371889        0.000653921550765
        5.805322383612000        0.000048537282282       -0.000453844372113       -0.001099988870873       -0.000048537282282        0.000453844372113        0.001099988870489
        5.926266599937250        0.000069498541363       -0.000649841153748       -0.001548803638096       -0.000069498541363        0.000649841153748        0.001548803641494
        6.047210816262500        0.000091913722513       -0.000859432713939       -0.002085159286827       -0.000091913722513        0.000859432713939        0.002085159293011
        6.168155032587750        0.000108145038280       -0.001011202483280       -0.002331225379804       -0.000108145038280        0.001011202483280        0.002331225386238
        6.289099248913001        0.000125756766713       -0.001175879705528       -0.002642433581012       -0.000125756766713        0.001175879705528        0.002642433585009
        6.410043465238251        0.000138814665317       -0.001297976661399       -0.002811360868805       -0.000138814665317        0.001297976661399        0.002811360868394
        6.530987681563500        0.000149172598827       -0.001394827781997       -0.002966865711382       -0.000149172598827        0.001394827781997        0.002966865706458
        6.651931897888750        0.000159158809346       -0.001488203139798       -0.003183499844154       -0.000159158809346        0.001488203139798        0.003183499836637
        6.772876114214000        0.000161414980746       -0.001509299304474       -0.003096137196901       -0.000161414980746        0.001509299304474        0.003096137189944
        6.893820330539250        0.000163657906524       -0.001530271615097       -0.003067395610327       -0.000163657906524        0.001530271615097        0.003067395606832
        7.014764546864500        0.000160044808417       -0.001496487597753       -0.002918111555422       -0.000160044808417        0.001496487597753        0.002918111556787
        7.135708763189751        0.000152512956367       -0.001426061542712       -0.002736643891339       -0.000152512956367        0.001426061542712        0.002736643896762
        7.256652979515001        0.000143553058501       -0.001342282638139       -0.002606684293524       -0.000143553058501        0.001342282638139        0.002606684300708
        7.377597195840250        0.000126509119478       -0.001182914483835       -0.002193157037373       -0.000126509119478        0.001182914483835        0.002193157043089
        7.498541412165500        0.000108874997523       -0.001018027864304       -0.001843967224968       -0.000108874997523        0.001018027864304        0.001843967227176
        7.619485628490750        0.000086451276004       -0.000808356437386       -0.001436633079318       -0.000086451276004        0.000808356437386        0.001436633077544
        7.740429844816000        0.000059563933729       -0.000556948233138       -0.000987696343616       -0.000059563933729        0.000556948233138        0.000987696339329
        7.861374061141250        0.000033028030451       -0.000308826134492       -0.000620843515009       -0.000033028030451        0.000308826134492        0.000620843510191
        7.982318277466501       -0.000002030224221        0.000018983612497        0.000009073107114        0.000002030224221       -0.000018983612497       -0.000009073110259
        8.103262493791750       -0.000035398428132        0.000330990655820        0.000530348344896        0.000035398428132       -0.000330990655820       -0.000530348345620
        8.224206710117000       -0.000073697635940        0.000689104699337        0.001079472277428        0.000073697635940       -0.000689104699337       -0.001079472276339
        8.345150926442249       -0.000113950506485        0.001065486335397        0.001640944710648        0.000113950506485       -0.001065486335397       -0.001640944709446
        8.466095142767500       -0.000153798046440        0.001438077948901        0.002124386469635        0.000153798046440       -0.001438077948901       -0.002124386468624
        8.587039359092751       -0.000198674551652        0.001857692556250        0.002799637507182        0.000198674551652       -0.001857692556250       -0.002799637507325
        8.707983575418000       -0.000241614195050        0.002259196672378        0.003359716162777        0.000241614195050       -0.002259196672378       -0.003359716162879
        8.828927791743251       -0.000284869957541        0.002663656627572        0.003862272519055        0.000284869957541       -0.002663656627572       -0.003862272517949
        8.949872008068500       -0.000330284310662        0.003088300343536        0.004402254826830        0.000330284310662       -0.003088300343536       -0.004402254823881
        9.070816224393750       -0.000370763081550        0.003466794241699        0.004807202564637        0.000370763081550       -0.003466794241699       -0.004807202560894
        9.191760440718999       -0.000415894602365        0.003888793357415        0.005391593803056        0.000415894602365       -0.003888793357415       -0.005391593800248
        9.312704657044250       -0.000455927192227        0.004263115266628        0.005819700313193        0.000455927192227       -0.004263115266628       -0.005819700313356
        9.433648873369501       -0.000494738573852        0.004626018365118        0.006163518202313        0.000494738573852       -0.004626018365118       -0.006163518206478
        9.554593089694750       -0.000533837097668        0.004991606354400        0.006550026301702        0.000533837097668       -0.004991606354400       -0.006550026309044
        9.675537306020001       -0.000566345169051        0.005295570797468        0.006789945200693        0.000566345169051       -0.005295570797468       -0.006789945208130
        9.796481522345250       -0.000600576553453        0.005615648948644        0.007165929100405        0.000600576553453       -0.005615648948644       -0.007165929104648
        9.917425738670500       -0.000628970363685        0.005881143279615        0.007386575109774        0.000628970363685       -0.005881143279615       -0.007386575108338
       10.038369954995749       -0.000652689530550        0.006102927670571        0.007482704583003        0.000652689530550       -0.006102927670571       -0.007482704575771
       10.159314171321000       -0.000675809030555        0.006319104936904        0.007638700816672        0.000675809030555       -0.006319104936904       -0.007638700806442
       10.280258387646251       -0.000691322793488        0.006464165289937        0.007656118336865        0.000691322793488       -0.006464165289937       -0.007656118327728
       10.401202603971500       -0.000705360458364        0.006595423491212        0.007757143355395        0.000705360458364       -0.006595423491212       -0.007757143351437
       10.522146820296751       -0.000715365851608        0.006688978224273        0.007741976182103        0.000715365851608       -0.006688978224273       -0.007741976185081
       10.643091036622000       -0.000717074737279        0.006704957048137        0.007574815533664        0.000717074737279       -0.006704957048137       -0.007574815542322
       10.764035252947250       -0.000719764222843        0.006730104891832        0.007496844402495        0.000719764222843       -0.006730104891832       -0.007496844413168
       10.884979469272501       -0.000712857876506        0.006665527596465        0.007294367969095        0.000712857876506       -0.006665527596465       -0.007294367977189
       11.005923685597750       -0.000704658052201        0.006588855729121        0.007148508519420        0.000704658052201       -0.006588855729121       -0.007148508521887
       11.126867901923001       -0.000690290783736        0.006454515601589        0.006886882045906        0.000690290783736       -0.006454515601589       -0.006886882042218
       11.247812118248250       -0.000670266712971        0.006267281949147        0.006524924899901        0.000670266712971       -0.006267281949147       -0.006524924892492
       11.368756334573501       -0.000646554559415        0.006045563135804        0.006200273709718        0.000646554559415       -0.006045563135804       -0.006200273701598
       11.489700550898750       -0.000619435193306        0.005791985420226        0.005854473005291        0.000619435193306       -0.005791985420226       -0.005854473000407
       11.610644767224001       -0.000585392412030        0.005473670812324        0.005478432701197        0.000585392412030       -0.005473670812324       -0.005478432700419
       11.731588983549251       -0.000551649448447        0.005158159619931        0.005067582903802        0.000551649448447       -0.005158159619931       -0.005067582906411
       11.852533199874500       -0.000509090784857        0.004760217844765        0.004556988941298        0.000509090784857       -0.004760217844765       -0.004556988944705
       11.973477416199751       -0.000467680259436        0.004372991307519        0.004117251338503        0.000467680259436       -0.004372991307519       -0.004117251341538
       12.094421632525000       -0.000420871376408        0.003935328505567        0.003667786870609        0.000420871376408       -0.003935328505567       -0.003667786871489
       12.215365848850251       -0.000372401591678        0.003482115209169        0.003212528233140        0.000372401591678       -0.003482115209169       -0.003212528233140
       12.336310065175500       -0.000320945116950        0.003000975082692        0.002702736318439        0.000320945116950       -0.003000975082692       -0.002702736318949
       12.457254281500751       -0.000268592842131        0.002511458834810        0.002189446838437        0.000268592842131       -0.002511458834810       -0.002189446841001
       12.578198497826001       -0.000213246779247        0.001993949395311        0.001702567152526        0.000213246779247       -0.001993949395311       -0.001702567155548
       12.699142714151250       -0.000161478639980        0.001509895067248        0.001290013521704        0.000161478639980       -0.001509895067248       -0.001290013524232
       12.820086930476501       -0.000104935796714        0.000981195212768        0.000832301874425        0.000104935796714       -0.000981195212768       -0.000832301873654
       12.941031146801750       -0.000054095043800        0.000505812355681        0.000395492956287        0.000054095043800       -0.000505812355681       -0.000395492951220
       13.061975363127001       -0.000000351471764        0.000003286888507       -0.000049429971274        0.000000351471764       -0.000003286888507        0.000049429980018
       13.182919579452250        0.000047863315173       -0.000447542068137       -0.000400382114884       -0.000047863315173        0.000447542068137        0.000400382123071
       13.303863795777501        0.000095043500649       -0.000888697041925       -0.000713444573365       -0.000095043500649        0.000888697041925        0.000713444577585
       13.424808012102751        0.000138376826003       -0.001293882230346       -0.001012473169325       -0.000138376826003        0.001293882230346        0.001012473166438
