#  GS molecular orbital populations, spin channel : 1
#          time (fs)            |   population (orb 1)       |    population (orb 2)      |           ...              |    population (orb N)      |
          0.118525331998745            1.997811760386359            0.002191916078594  
          0.239469548323995            1.993593581483877            0.006412726420162  
          0.360413764649245            1.988006054930997            0.012003623686672  
          0.481357980974495            1.981846694357037            0.018167156218234  
          0.602302197299745            1.976910393884307            0.023108386433189  
          0.723246413624995            1.973545364683750            0.026478792059113  
          0.844190629950245            1.972648614964481            0.027381147164138  
          0.965134846275495            1.974053318073893            0.025981841332622  
          1.086079062600745            1.977443893018866            0.022596140522501  
          1.207023278925995            1.982519574594248            0.017524404325659  
          1.327967495251245            1.987948229477929            0.012098464259228  
          1.448911711576495            1.993397194440796            0.006650886132487  
          1.569855927901745            1.997317886805803            0.002730224030682  
          1.690800144226995            1.999543365504171            0.000503687574797  
          1.811744360552245            1.999437279424059            0.000607887180380  
          1.932688576877495            1.996897404973372            0.003145428623730  
          2.053632793202745            1.992381183939973            0.007659269502609  
          2.174577009527995            1.985738445597902            0.014299841939194  
          2.295521225853245            1.978170007162611            0.021866660213451  
          2.416465442178495            1.970143689105104            0.029891938381701  
          2.537409658503745            1.962254680925301            0.037780599276070  
          2.658353874828995            1.954932305461229            0.045103306640624  
          2.779298091154245            1.945605811186378            0.054430811709934  
          2.900242307479495            1.934234052031850            0.065804576685086  
          3.021186523804745            1.917609389522039            0.082432161560196  
          3.142130740129995            1.899604915160607            0.100440737906799  
          3.263074956455245            1.882864497958771            0.117185521252850  
          3.384019172780495            1.872720104318818            0.127333684921142  
          3.504963389105745            1.868801520382692            0.131254596700367  
          3.625907605430995            1.859458175938809            0.140599370645547  
          3.746851821756245            1.833497377002487            0.166564068863607  
          3.867796038081495            1.784261671914262            0.215807246532523  
          3.988740254406745            1.736108693884119            0.263968337057825  
          4.109684470731995            1.716861959327803            0.283213067386747  
          4.230628687057245            1.714460077374942            0.285599754257445  
          4.351572903382495            1.661481523134266            0.338572455685520  
          4.472517119707745            1.532998015425787            0.467076082297562  
          4.593461336032996            1.464103089867544            0.535977974935070  
          4.714405552358246            1.527008910053474            0.473022447497075  
          4.835349768683495            1.504456523456189            0.495570407293286  
          4.956293985008745            1.384161855988546            0.615948853931492  
          5.077238201333995            1.497728428165858            0.502372717086853  
          5.198182417659245            1.621657569704414            0.378441897256358  
          5.319126633984495            1.563695242752375            0.436492254101642  
          5.440070850309746            1.677285177076649            0.322856963593156  
          5.561015066634996            1.536856738170560            0.463313368421430  
          5.681959282960245            1.513366147484294            0.486761872062834  
          5.802903499285495            1.466305646717891            0.533786132090950  
          5.923847715610745            1.335331548571755            0.664841901569550  
          6.044791931935995            1.598400629281548            0.401714502934418  
          6.165736148261245            1.501902319925156            0.498319928508886  
          6.286680364586495            1.612107778842008            0.388046080814956  
          6.407624580911745            1.358383393834504            0.641826078647764  
          6.528568797236995            1.476929600382217            0.523174893634520  
          6.649513013562244            1.289763756550002            0.710448852250914  
          6.770457229887494            1.579940057131523            0.420222664833911  
          6.891401446212745            1.525940458160171            0.474250701667656  
          7.012345662537995            1.305441920834033            0.694737096389189  
          7.133289878863245            1.416718313475152            0.583387995265015  
          7.254234095188495            1.257164270822384            0.743032276445090  
          7.375178311513745            1.604431167757341            0.395696336888256  
          7.496122527838994            1.362899527316304            0.637285545869024  
          7.617066744164244            1.257915882054375            0.742211189276638  
          7.738010960489495            1.328727848840919            0.671387286988313  
          7.858955176814745            1.302647427246521            0.697541885679755  
          7.979899393139995            1.517202047188947            0.482914464744089  
          8.100843609465246            1.238873391460872            0.761266243418811  
          8.221787825790495            1.136308522329503            0.863833209003495  
          8.342732042115745            1.516192807145703            0.483901530759331  
          8.463676258440994            1.310394760119796            0.689756207408406  
          8.584620474766245            1.122015010191028            0.878099326763954  
          8.705564691091494            1.369419216654702            0.630639858600811  
          8.826508907416745            1.190501069520679            0.809637525184190  
          8.947453123741996            1.256380516188532            0.743724389969813  
          9.068397340067245            1.405596017478588            0.594451589976931  
          9.189341556392495            1.007572365207527            0.992548312428538  
          9.310285772717744            1.338223796223616            0.661870715989222  
          9.431229989042995            1.486784958927517            0.513270920707558  
          9.552174205368244            0.996431009920620            1.003665245334082  
          9.673118421693495            1.150015509504710            0.850065706103299  
          9.794062638018746            1.512296400169622            0.487754879723306  
          9.915006854343995            1.175784538896586            0.824282642630000  
         10.035951070669245            0.944010489971369            1.056066547854900  
         10.156895286994494            1.469537595594951            0.530499832785026  
         10.277839503319745            1.390268493458933            0.609779206817575  
         10.398783719644994            0.913373263882400            1.086698409237827  
         10.519727935970245            1.205939728870965            0.794094263523640  
         10.640672152295496            1.418867401980620            0.581165729155124  
         10.761616368620745            1.066897792745592            0.933155196450490  
         10.882560584945995            0.932785186886865            1.067257217008220  
         11.003504801271244            1.423957167846303            0.576061765829268  
         11.124449017596495            1.299600261532553            0.700430248080425  
         11.245393233921744            0.875825201146151            1.124216526784300  
         11.366337450246995            1.159072105075260            0.840943202256958  
         11.487281666572246            1.383749711353822            0.616264577625562  
         11.608225882897495            1.035474540950066            0.964551322398034  
         11.729170099222745            0.880743289203189            1.119278857690319  
         11.850114315547994            1.393633347545162            0.606374442724478  
         11.971058531873245            1.325936641243963            0.674074120426582  
         12.092002748198494            0.851623410478129            1.148394709004015  
         12.212946964523745            1.059392263353571            0.940614371434023  
         12.333891180848996            1.413771630527736            0.586230775041039  
         12.454835397174245            1.075471938530242            0.924532604735627  
         12.575779613499495            0.841522735003063            1.158481441179364  
         12.696723829824744            1.306284693487481            0.693713703178842  
         12.817668046149995            1.392560214140254            0.607437053764327  
         12.938612262475244            0.883623325593763            1.116373524098981  
         13.059556478800495            0.994894727036680            1.005097306578424  
         13.180500695125746            1.341243695864268            0.658748661442013  
         13.301444911450995            1.195017502075917            0.804974897276677  
         13.422389127776245            0.863439990680814            1.136543784960700  
         13.543333344101494            1.211062688842700            0.788920525498078  
         13.664277560426745            1.344912529782387            0.655076315331429  
         13.785221776751994            0.974689000319554            1.025293748030994  
         13.906165993077245            0.999726154323803            1.000243645512642  
         14.027110209402496            1.246249413617873            0.753726857648894  
         14.148054425727745            1.314877815923707            0.685106644892042  
         14.268998642052996            0.927312523946551            1.072649709742257  
         14.389942858378244            1.189821747070894            0.810136259013969  
         14.510887074703495            1.293658468909892            0.706316358790925  
         14.631831291028744            1.065784983440633            0.934183938949902  
         14.752775507353995            1.042493474848665            0.957449139342466  
         14.873719723679246            1.249029909889276            0.750925010161942  
         14.994663940004495            1.372806050746749            0.627168288170734  
         15.115608156329746            0.972755699605468            1.027181544357841  
         15.236552372654995            1.247465025806232            0.752466902237710  
         15.357496588980245            1.376092162859184            0.623865869862763  
         15.478440805305494            1.081309492347656            0.918633191995484  
         15.599385021630745            1.095959447397859            0.903950126233159  
         15.720329237955996            1.409120703467628            0.590812449462422  
         15.841273454281245            1.364136141262448            0.635808953402012  
         15.962217670606496            0.979011178890173            1.020882425544371  
         16.083161886931745            1.435972350972552            0.563944995615179  
         16.204106103256994            1.543521867662216            0.456409555888284  
         16.325050319582246            1.025300674131416            0.974584827961928  
         16.445994535907495            1.262808449315161            0.737097738346462  
         16.566938752232744            1.542511930567244            0.457402191020252  
         16.687882968557997            1.223898431805523            0.775969819364995  
         16.808827184883246            1.138070203207667            0.861813856971375  
         16.929771401208495            1.439136463348632            0.560773253216348  
         17.050715617533744            1.329321471232722            0.670516077593079  
         17.171659833858996            1.248751387577273            0.751108120252467  
         17.292604050184245            1.408157887804003            0.591753137202644  
         17.413548266509494            1.183579609942034            0.816236390653513  
         17.534492482834747            1.529097755795586            0.470756747353464  
         17.655436699159996            1.499841053684477            0.500030900137630  
         17.776380915485245            1.112442165108136            0.887363630747608  
         17.897325131810494            1.560692860954755            0.439191600976639  
         18.018269348135746            1.438232871158057            0.561567264330086  
         18.139213564460995            1.371859602814134            0.627943039123442  
         18.260157780786244            1.487767352105331            0.512105648648592  
         18.381101997111497            1.227311125104201            0.772457639279639  
         18.502046213436746            1.631842788194247            0.367992167363184  
         18.622990429761995            1.489796930367537            0.509965060310135  
         18.743934646087244            1.441624740013366            0.558187441792602  
         18.864878862412496            1.371896481603834            0.627919916379554  
         18.985823078737745            1.457409152268527            0.542391346294488  
         19.106767295062994            1.582273834825881            0.417522886997321  
         19.227711511388247            1.528765770612562            0.470988683434558  
         19.348655727713496            1.603822363801519            0.396020288568737  
         19.469599944038745            1.354545508904673            0.645242615718162  
         19.590544160363994            1.505356209230799            0.494491703278897  
         19.711488376689246            1.559769497023899            0.440023872217635  
         19.832432593014495            1.627508796759883            0.372269583106000  
         19.953376809339744            1.642314441795153            0.357473124032173  
         20.074321025664997            1.548514679768642            0.451269347415780  
         20.195265241990246            1.603690572942958            0.396193274577387  
         20.316209458315495            1.413581701045843            0.586234883714267  
         20.437153674640744            1.503621660144772            0.496244220137897  
         20.558097890965996            1.630962329769721            0.368931782516559  
         20.679042107291245            1.589400852801702            0.410420019774827  
         20.799986323616494            1.659662640108678            0.340157961578071  
         20.920930539941747            1.756545107131394            0.243300957171212  
         21.041874756266996            1.753065902721795            0.246768793338516  
         21.162818972592245            1.731633551641286            0.268193766772485  
         21.283763188917494            1.743715230663596            0.256137413806484  
         21.404707405242746            1.761319259110412            0.238570013832397  
         21.525651621567995            1.760713108750784            0.239201634314788  
         21.646595837893244            1.739581986815104            0.260350052698287  
         21.767540054218497            1.718547367266279            0.281397058199847  
         21.888484270543746            1.702711605549110            0.297246347984548  
         22.009428486868995            1.699611983810513            0.300359870351155  
         22.130372703194244            1.706195242009337            0.293792088887419  
         22.251316919519496            1.722763090595784            0.277242096280822  
         22.372261135844745            1.746500369210493            0.253525654965074  
         22.493205352169994            1.774916432535707            0.225132825690607  
         22.614149568495247            1.806271023311681            0.193801881377012  
         22.735093784820496            1.836574879744442            0.163519413790344  
         22.856038001145745            1.865726011623999            0.134386047700869  
         22.976982217470994            1.889525260824160            0.110599334002537  
         23.097926433796246            1.909592477634855            0.090540569300451  
         23.218870650121495            1.921475815777989            0.078661217479654  
         23.339814866446744            1.927172073018574            0.072967058875696  
         23.460759082771997            1.921778227205788            0.078361034640189  
         23.581703299097246            1.909455531766013            0.090684106419142  
         23.702647515422495            1.892905143383885            0.107233413272174  
         23.823591731747744            1.884899769899255            0.115235193735298  
         23.944535948072996            1.893313009972743            0.106813969788872  
         24.065480164398245            1.911557439956092            0.088558863490713  
         24.186424380723494            1.922304857298386            0.077803822660926  
         24.307368597048747            1.911847934251334            0.088257272303708  
         24.428312813373996            1.903292844910045            0.096809789918583  
         24.549257029699245            1.919220915215929            0.080874350085110  
         24.670201246024494            1.951302481996375            0.048781867910547  
         24.791145462349750            1.974221583816415            0.025852062544656  
         24.912089678674999            1.982731323073232            0.017330752865168  
         25.033033895000248            1.991232131315247            0.008815999639414  
         25.153978111325497            1.996763406252479            0.003269082032463  
         25.274922327650749            1.994227589292576            0.005788801012250  
         25.395866543975998            1.986965727271774            0.013034884967303  
         25.516810760301247            1.968349938782669            0.031635930356492  
         25.637754976626500            1.937821294578368            0.062151084070257  
         25.758699192951749            1.924789137240441            0.075171699861580  
         25.879643409276998            1.935204255263303            0.064746917626116  
         26.000587625602247            1.932718878708043            0.067222064927242  
         26.121531841927499            1.913320491904735            0.086607501727157  
         26.242476058252748            1.909904453495931            0.090010655399415  
         26.363420274577997            1.934870111319141            0.065033573925364  
         26.484364490903250            1.963131675884195            0.036758967222482  
         26.605308707228499            1.975959811605371            0.023914893946732  
         26.726252923553748            1.983063278368528            0.016793885945768  
         26.847197139878997            1.990585225826061            0.009255095564925  
         26.968141356204249            1.997050373174264            0.002774049505630  
         27.089085572529498            1.999584352540073            0.000225219938249  
