#             time (fs)      |   total net charge (e)  |   charge (atom_1) (e)   |   charge (atom_2) (e)   |        ...        |   charge (atom_N) (e)   |
          0.000000000000000       -0.000000000000000       -0.000000000000000        0.000000000000000
          0.120944216325250       -0.000000001044174       -0.016431270895666        0.016431269851492
          0.241888432650500       -0.000000003263966        0.055912707746168       -0.055912711010134
          0.362832648975750       -0.000000007060579       -0.111111456592151        0.111111449531572
          0.483776865301000       -0.000000013463542        0.171794523545641       -0.171794537009183
          0.604721081626250       -0.000000022797165       -0.226554822860851        0.226554800063686
          0.725665297951500       -0.000000036363809        0.264875405284650       -0.264875441648459
          0.846609514276750       -0.000000051045315       -0.278778734118475        0.278778683073160
          0.967553730602000       -0.000000065319373        0.264351334973863       -0.264351400293236
          1.088497946927250       -0.000000071163305       -0.222516350266570        0.222516279103264
          1.209442163252500       -0.000000066512761        0.159397280857508       -0.159397347370269
          1.330386379577750       -0.000000046472952       -0.085588942744798        0.085588896271846
          1.451330595903000       -0.000000012858224        0.014753980738084       -0.014753993596309
          1.572274812228250        0.000000032056326        0.038909051654008       -0.038909019597682
          1.693219028553500        0.000000083927589       -0.063443022289307        0.063443106216896
          1.814163244878750        0.000000135351703        0.052137431772081       -0.052137296420377
          1.935107461204000        0.000000180350671       -0.005522153256806        0.005522333607477
          2.056051677529250        0.000000211952565       -0.067699470435933        0.067699682388499
          2.176995893854500        0.000000224863675        0.151688139117121       -0.151687914253446
          2.297940110179750        0.000000216563998       -0.225920067612485        0.225920284176483
          2.418884326505000        0.000000179837274        0.269202936236233       -0.269202756398959
          2.539828542830250        0.000000111022100       -0.264044274913042        0.264044385935141
          2.660772759155500       -0.000000003296653        0.201067332451894       -0.201067335748547
          2.781716975480750       -0.000000169389983       -0.082154717409581        0.082154548019599
          2.902661191806000       -0.000000393169786       -0.077855875899089        0.077855482729303
          3.023605408131250       -0.000000665684674        0.251868449916524       -0.251869115601197
          3.144549624456500       -0.000000961815351       -0.403416479371822        0.403415517556471
          3.265493840781750       -0.000001265455081        0.492408861371269       -0.492410126826350
          3.386438057107000       -0.000001569277746       -0.483296455308653        0.483294886030907
          3.507382273432250       -0.000001927474410        0.355747631261298       -0.355749558735708
          3.628326489757500       -0.000002366253117       -0.115898283488021        0.115895917234904
          3.749270706082750       -0.000002809973688       -0.194202948335863        0.194200138362176
          3.870214922408000       -0.000002987185008        0.493671857214780       -0.493674844399787
          3.991159138733250       -0.000002555415189       -0.672370585381276        0.672368029966087
          4.112103355058500       -0.000001607613345        0.622753847044862       -0.622755454658207
          4.233047571383750       -0.000000769383442       -0.297776207905587        0.297775438522145
          4.353991787709000       -0.000000266629498       -0.223367475936012        0.223367209306514
          4.474936004034250        0.000001348771466        0.706074651849914       -0.706073303078449
          4.595880220359500        0.000005098290799       -0.825188080702368        0.825193178993167
          4.716824436684750        0.000007255611086        0.393617897021752       -0.393610641410665
          4.837768653010000        0.000005483403069        0.362660877434337       -0.362655394031268
          4.958712869335250        0.000005609521167       -0.837511874821032        0.837517484342200
          5.079657085660500        0.000006199555195        0.527276504891277       -0.527270305336082
          5.200601301985750        0.000000404705768        0.298657022763558       -0.298656618057789
          5.321545518311000       -0.000002839568423       -0.731118192653023        0.731115353084601
          5.442489734636251       -0.000005945710603        0.211582301480926       -0.211588247191529
          5.563433950961501       -0.000010755961158        0.610420800240975       -0.610431556202133
          5.684378167286750       -0.000009959054828       -0.538614555402462        0.538604596347634
          5.805322383612000       -0.000013604294116       -0.399744931334962        0.399731327040846
          5.926266599937250       -0.000008851038714        0.695544231477386       -0.695553082516100
          6.047210816262500       -0.000007666648174        0.194256177570257       -0.194263844218431
          6.168155032587750       -0.000003751867663       -0.663838926537198        0.663835174669535
          6.289099248913001       -0.000001983784844       -0.171705025904979        0.171703042120135
          6.410043465238251        0.000002617276595        0.672023220420708       -0.672020603144113
          6.530987681563500        0.000002301499716        0.228722464419593       -0.228720162919877
          6.651931897888750        0.000004878371196       -0.635917030566101        0.635921908937298
          6.772876114214000        0.000001420755973       -0.336580026222276        0.336581446978249
          6.893820330539250        0.000000502066519        0.479728772737146       -0.479728270670627
          7.014764546864500       -0.000005132804472        0.535950631922242       -0.535955764726715
          7.135708763189751       -0.000005027047573       -0.278846079320363        0.278841052272790
          7.256652979515001       -0.000008961804825       -0.640818794045236        0.640809832240410
          7.377597195840250       -0.000009049196624       -0.052177001884698        0.052167952688074
          7.498541412165500       -0.000007738519727        0.577299669742351       -0.577307408262078
          7.619485628490750       -0.000008366678163        0.425656694261683       -0.425665060939846
          7.740429844816000       -0.000002894531653       -0.315216479821125        0.315213585289472
          7.861374061141250       -0.000002259144426       -0.605799715393311        0.605797456248885
          7.982318277466501       -0.000000887859926       -0.151367461417232        0.151366573557307
          8.103262493791750        0.000001580237171        0.486551933351415       -0.486550353114244
          8.224206710117000       -0.000001012090119        0.539554101584532       -0.539555113674651
          8.345150926442249       -0.000000815994745       -0.043039960955100        0.043039144960355
          8.466095142767500       -0.000002662582696       -0.539852288501164        0.539849625918468
          8.587039359092751       -0.000006335888772       -0.466062348348108        0.466056012459336
          8.707983575418000       -0.000005725638920        0.124836438418628       -0.124842164057548
          8.828927791743251       -0.000006267555373        0.558146926462367       -0.558153194017740
          8.949872008068500       -0.000006852096482        0.423077460875487       -0.423084312971970
          9.070816224393750       -0.000004844079496       -0.117139554845730        0.117134710766234
          9.191760440718999       -0.000002877279990       -0.556626495613372        0.556623618333382
          9.312704657044250       -0.000002445379380       -0.425772059559014        0.425769614179634
          9.433648873369501       -0.000001491306569        0.059210305739742       -0.059211797046310
          9.554593089694750       -0.000000758566480        0.515769433382082       -0.515770191948562
          9.675537306020001       -0.000002710394628        0.474639532210658       -0.474642242605286
          9.796481522345250       -0.000003263602722        0.031010248373377       -0.031013511976099
          9.917425738670500       -0.000003746425729       -0.428689903616151        0.428686157190422
         10.038369954995749       -0.000005454171425       -0.537574078362697        0.537568624191272
         10.159314171321000       -0.000005347529865       -0.160212041474580        0.160206693944715
         10.280258387646251       -0.000004775537439        0.301598289012533       -0.301603064549972
         10.401202603971500       -0.000004161456718        0.558581252161737       -0.558585413618455
         10.522146820296751       -0.000003655743223        0.323751617456282       -0.323755273199505
         10.643091036622000       -0.000002686953030       -0.132502619868124        0.132499932915094
         10.764035252947250       -0.000002491609750       -0.494742905486922        0.494740413877172
         10.884979469272501       -0.000003363023613       -0.480586410950252        0.480583047926639
         11.005923685597750       -0.000003370311875       -0.081006262992472        0.081002892680597
         11.126867901923001       -0.000003777438551        0.341855330847492       -0.341859108286044
         11.247812118248250       -0.000004486427430        0.552708575374518       -0.552713061801948
         11.368756334573501       -0.000004928257455        0.314305486645413       -0.314310414902867
         11.489700550898750       -0.000004569245556       -0.117524445273267        0.117519876027711
         11.610644767224001       -0.000004123316786       -0.476410798671394        0.476406675354608
         11.731588983549251       -0.000003977558839       -0.503937823708432        0.503933846149593
         11.852533199874500       -0.000003508012454       -0.146799657716671        0.146796149704216
         11.973477416199751       -0.000003390679303        0.270868753370115       -0.270872144049418
         12.094421632525000       -0.000003565435618        0.545220063576144       -0.545223629011762
         12.215365848850251       -0.000003956858464        0.398404339448351       -0.398408296306815
         12.336310065175500       -0.000004030171518        0.001532910330933       -0.001536940502451
         12.457254281500751       -0.000004056707898       -0.393779690024207        0.393775633316309
         12.578198497826001       -0.000004171581908       -0.545099231000076        0.545095059418168
         12.699142714151250       -0.000004138520476       -0.278582293015683        0.278578154495207
         12.820086930476501       -0.000004096065459        0.129942410600301       -0.129946506665760
         12.941031146801750       -0.000004061360099        0.487163072578667       -0.487167133938767
         13.061975363127001       -0.000004062383659        0.487486975056309       -0.487491037439968
         13.182919579452250       -0.000004076870100        0.156490636160069       -0.156494713030169
         13.303863795777501       -0.000004086919947       -0.260320129004720        0.260316042084772
         13.424808012102751       -0.000003959996239       -0.534248844502111        0.534244884505872
         13.545752228428000       -0.000003661164286       -0.396794224420659        0.396790563256374
         13.666696444753251       -0.000003523872030       -0.021089304915652        0.021085781043622
         13.787640661078500       -0.000003744151078        0.388129929544123       -0.388133673695201
         13.908584877403751       -0.000003726867599        0.523103165519510       -0.523106892387109
         14.029529093729000       -0.000003926841799        0.278604488854595       -0.278608415696394
         14.150473310054251       -0.000004389343755       -0.140826352108583        0.140821962764828
         14.271417526379501       -0.000004743352533       -0.489778557680709        0.489773814328176
         14.392361742704750       -0.000004502493588       -0.456280658341218        0.456276155847630
         14.513305959030001       -0.000004308249311       -0.114289939574742        0.114285631325430
         14.634250175355250       -0.000004515492685        0.324260017229745       -0.324264532722430
         14.755194391680501       -0.000003630378751        0.524994559189717       -0.524998189568468
         14.876138608005750       -0.000002857899704        0.321141666084877       -0.321144523984581
         14.997082824331001       -0.000002939277544       -0.109970374125792        0.109967434848248
         15.118027040656251       -0.000003398347279       -0.485409326365247        0.485405928017968
         15.238971256981500       -0.000003365040925       -0.453887028781093        0.453883663740169
         15.359915473306751       -0.000003897894907       -0.087644694599998        0.087640796705091
         15.480859689632000       -0.000005371651989        0.370715246139580       -0.370720617791568
         15.601803905957251       -0.000005170261191        0.522846439801063       -0.522851610062255
         15.722748122282500       -0.000005123439983        0.233794271894060       -0.233799395334043
         15.843692338607751       -0.000005389930143       -0.239062829277809        0.239057439347666
         15.964636554933001       -0.000004447697202       -0.543712582722510        0.543708135025309
         16.085580771258250       -0.000002964487056       -0.329502509095890        0.329499544608834
         16.206524987583499       -0.000002415734824        0.141063333921051       -0.141065749655875
         16.327469203908752       -0.000002365510504        0.530592132664821       -0.530594498175325
         16.448413420234001       -0.000001368684504        0.395984725547820       -0.395986094232324
         16.569357636559250       -0.000002752778242       -0.101572545452820        0.101569792674579
         16.690301852884499       -0.000003911512241       -0.513154624368218        0.513150712855977
         16.811246069209751       -0.000003801185607       -0.431898395999891        0.431894594814284
         16.932190285535000       -0.000006461591044        0.114224936070208       -0.114231397661252
         17.053134501860249       -0.000006484852916        0.526293384197856       -0.526299869050772
         17.174078718185502       -0.000004849953878        0.409944729730586       -0.409949579684464
         17.295022934510751       -0.000005692201523       -0.175873823203527        0.175868131002004
         17.415967150836000       -0.000003796217717       -0.575288829925527        0.575285033707810
         17.536911367161249       -0.000001340133111       -0.303616989717088        0.303615649583976
         17.657855583486501       -0.000001208197358        0.307116456891978       -0.307117665089337
         17.778799799811750        0.000000441349023        0.597798929646402       -0.597798488297379
         17.899744016136999       -0.000000474552420        0.097441657610031       -0.097442132162452
         18.020688232462252       -0.000002126443092       -0.500201953284221        0.500199826841129
         18.141632448787501       -0.000001873354172       -0.468156333957351        0.468154460603179
         18.262576665112750       -0.000005790675853        0.223827070671588       -0.223832861347441
         18.383520881437999       -0.000006612139634        0.625748959149776       -0.625755571289410
         18.504465097763251       -0.000008278372609        0.086776893244722       -0.086785171617332
         18.625409314088500       -0.000008832494823       -0.559187493983706        0.559178661488884
         18.746353530413749       -0.000005469287531       -0.371823156873616        0.371817687586085
         18.867297746739002       -0.000007215067806        0.470241657361723       -0.470248872429528
         18.988241963064251       -0.000001594652654        0.507011171341245       -0.507012765993899
         19.109186179389500       -0.000001586572639       -0.338314767868786        0.338313181296147
         19.230130395714749        0.000002842319096       -0.571737482293892        0.571740324612988
         19.351074612040001        0.000002786150198        0.268637374546209       -0.268634588396011
         19.472018828365250        0.000004968585401        0.634443843250429       -0.634438874665028
         19.592963044690499        0.000000129859970       -0.349892368554229        0.349892498414199
         19.713907261015752        0.000001018790962       -0.551206743434743        0.551207762225705
         19.834851477341001       -0.000003827053094        0.458113381559325       -0.458117208612420
         19.955795693666250       -0.000003808499234        0.408542706361583       -0.408546514860818
         20.076739909991499       -0.000008505005465       -0.650855081228637        0.650846576223172
         20.197684126316751       -0.000008507289807       -0.075853869141303        0.075845361851496
         20.318628342642000       -0.000009418077175        0.749377062610617       -0.749386480687792
         20.439572558967249       -0.000012676904381       -0.537784004233904        0.537771327329523
         20.560516775292502       -0.000008538303085       -0.222013608750665        0.222005070447580
         20.681460991617751       -0.000005671260553        0.715139805951299       -0.715145477211852
         20.802405207943000       -0.000004605250486       -0.577796464095363        0.577791858844877
         20.923349424268253       -0.000000646165899        0.046728152360778       -0.046728798526676
         21.044293640593501        0.000003416322312        0.459322428677519       -0.459319012355208
         21.165237856918750        0.000005253974421       -0.685498616940470        0.685503870914892
         21.286182073243999        0.000006238940374        0.606496885748755       -0.606490646808381
         21.407126289569252        0.000007317535407       -0.334299071486098        0.334306389021504
         21.528070505894501        0.000008097448322        0.001422751928559       -0.001414654480236
         21.649014722219750        0.000007988524879        0.300536867726546       -0.300528879201667
         21.769958938545003        0.000007017095181       -0.529878989229888        0.529886006325069
         21.890903154870252        0.000005682102050        0.679698380092393       -0.679692697990343
         22.011847371195501        0.000004419993013       -0.759850264720063        0.759854684713076
         22.132791587520749        0.000003603323252        0.784526591558391       -0.784522988235139
         22.253735803846002        0.000003355007532       -0.766563101629365        0.766566456636897
         22.374680020171251        0.000003674783619        0.716298332183462       -0.716294657399842
         22.495624236496500        0.000004437611741       -0.642336016623211        0.642340454234952
         22.616568452821753        0.000005406302097        0.552607765479540       -0.552602359177442
         22.737512669147002        0.000006372379528       -0.454471371466568        0.454477743846097
         22.858456885472251        0.000007086548157        0.354150825733351       -0.354143739185194
         22.979401101797500        0.000007431651262       -0.255232838973521        0.255240270624783
         23.100345318122752        0.000007295076674        0.157823689735962       -0.157816394659288
