#           time (fs)    |     mu_x (e.angstrom)   |     mu_y (e.angstrom)   |     mu_z (e.angstrom)   |
        0.000000000000000       -0.000000000000000       -0.000000000000000        0.000000000000000
        0.002418884326505        0.000000007768263       -0.000000004652619       -0.000043111883777
        0.004837768653010       -0.000000190489270        0.000000114079470        0.000528477652427
        0.007256652979515       -0.000000595448090        0.000000356600496        0.001101161659183
        0.009675537306020       -0.000001641995137        0.000000983354635        0.002277099531469
        0.012094421632525       -0.000003112234505        0.000001863851717        0.003452347740591
        0.014513305959030       -0.000005633296770        0.000003373661643        0.005206729389414
        0.016932190285535       -0.000008781127937        0.000005258839691        0.006955814702292
        0.019351074612040       -0.000013343951610        0.000007991423393        0.009247659337069
        0.021769958938545       -0.000018714372829        0.000011207684852        0.011526898533765
        0.024188843265050       -0.000025801335804        0.000015451950739        0.014300918622578
        0.026607727591555       -0.000033846717284        0.000020270248451        0.017052514322289
        0.029026611918060       -0.000043831696564        0.000026250159046        0.020240175607243
        0.031445496244565       -0.000054888947726        0.000032872341685        0.023393343802779
        0.033864380571070       -0.000068016629646        0.000040734544554        0.026914194618913
        0.036283264897575       -0.000082287515236        0.000049281591276        0.030386555102163
        0.038702149224080       -0.000098656264121        0.000059085182144        0.034149798737319
        0.041121033550585       -0.000116191459995        0.000069587675681        0.037849001037252
        0.043539917877090       -0.000135740275684        0.000081296406009        0.041755280781764
        0.045958802203595       -0.000156427666171        0.000093687538789        0.045580834495056
        0.048377686530100       -0.000178927664428        0.000107164721332        0.049524197906214
        0.050796570856605       -0.000202485283952        0.000121276069325        0.053369473487715
        0.053215455183110       -0.000227536028627        0.000136282372428        0.057239480163994
        0.055634339509615       -0.000253509943182        0.000151842607972        0.060993844258756
        0.058053223836120       -0.000280540847685        0.000168036864043        0.064677779947449
        0.060472108162625       -0.000308308159062        0.000184673513354        0.068228828034393
        0.062890992489130       -0.000336585059158        0.000201616600276        0.071613987011432
        0.065309876815635       -0.000365362098311        0.000218860884538        0.074849835314643
        0.067728761142140       -0.000393998980183        0.000236022671478        0.077825832498895
        0.070147645468645       -0.000422854637376        0.000253317402915        0.080637430638489
        0.072566529795150       -0.000450830385643        0.000270086684388        0.083098504682171
        0.074985414121655       -0.000478704405198        0.000286797120883        0.085381930253437
        0.077404298448160       -0.000504884316416        0.000302494395293        0.087229198784037
        0.079823182774665       -0.000530610264405        0.000317921888985        0.088887894902551
        0.082242067101170       -0.000553771953840        0.000331814770405        0.090031523148057
        0.084660951427675       -0.000576104449320        0.000345212977738        0.090978439984792
        0.087079835754180       -0.000594967664144        0.000356533962804        0.091339684237149
        0.089498720080685       -0.000612613350423        0.000367127316230        0.091499285771574
        0.091917604407190       -0.000625873093009        0.000375093562623        0.091012373648398
        0.094336488733695       -0.000637524717327        0.000382097638728        0.090322471433683
        0.096755373060200       -0.000643886980677        0.000385932349107        0.088936281855031
        0.099174257386705       -0.000648259851493        0.000388575705931        0.087349658705747
        0.101593141713210       -0.000646479178063        0.000387530653297        0.085029166109370
        0.104012026039715       -0.000642349182136        0.000385077653249        0.082514954490504
        0.106430910366220       -0.000631267180926        0.000378456332884        0.079242404260658
        0.108849794692725       -0.000617509471143        0.000370230419390        0.075787186960676
        0.111268679019230       -0.000596093369326        0.000357411271405        0.071562972500541
        0.113687563345735       -0.000571720782230        0.000342818130091        0.067171577042323
        0.116106447672240       -0.000539101050086        0.000323277247877        0.062014793470003
        0.118525331998745       -0.000503301282319        0.000301827259187        0.056710756705026
        0.120944216325250       -0.000458807356428        0.000275159985168        0.050659411799539
        0.123363100651755       -0.000410977924117        0.000246489367159        0.044485097198923
        0.125781984978260       -0.000354171065341        0.000212430179947        0.037595966865635
        0.128200869304765       -0.000293951091096        0.000176320229091        0.030612324020253
        0.130619753631270       -0.000224653451457        0.000134760346589        0.022960446984314
        0.133038637957775       -0.000151951370112        0.000091154211338        0.015246410513324
        0.135457522284280       -0.000070270405418        0.000042156372447        0.006924224898352
        0.137876406610785        0.000014713249284       -0.000008827161336       -0.001424241975529
        0.140295290937290        0.000108365798098       -0.000065017218934       -0.010308109414344
        0.142714175263795        0.000205121270454       -0.000123073391275       -0.019179313295270
        0.145133059590300        0.000310016497933       -0.000186019170324       -0.028501586610825
        0.147551943916805        0.000417713983252       -0.000250650745892       -0.037769723328298
        0.149970828243310        0.000532799589679       -0.000319721277556       -0.047394319484781
        0.152389712569815        0.000650285208585       -0.000390236182275       -0.056921386410969
        0.154808596896320        0.000774186332146       -0.000464606604966       -0.066701527581386
        0.157227481222825        0.000899985273394       -0.000540119911506       -0.076339494780422
        0.159646365549330        0.001031012652606       -0.000618776487906       -0.086120053015628
        0.162065249875835        0.001163339706466       -0.000698216866124       -0.095713254260203
        0.164484134202340        0.001299505292588       -0.000779966489526       -0.105333286589939
        0.166903018528845        0.001436282847914       -0.000862087142542       -0.114720987645176
        0.169321902855350        0.001575322836623       -0.000945571288670       -0.124016416817171
        0.171740787181855        0.001714206264704       -0.001028965301977       -0.133035515978386
        0.174159671508360        0.001853611366366       -0.001112678291000       -0.141841910375651
        0.176578555834865        0.001992021565346       -0.001195798232656       -0.150329724944360
        0.178997440161370        0.002129074185286       -0.001278109579486       -0.158485130590677
        0.181416324487875        0.002264236911644       -0.001359291104946       -0.166282222604559
        0.183835208814380        0.002396054766791       -0.001438471654777       -0.173630000369771
        0.186254093140885        0.002525046235803       -0.001515960790634       -0.180582995254613
        0.188672977467390        0.002648631792789       -0.001590212260926       -0.186974617183267
        0.191091861793895        0.002768429888885       -0.001662195967475       -0.192938969853853
        0.193510746120400        0.002880724871819       -0.001729683446819       -0.198236729757359
        0.195929630446905        0.002988265173232       -0.001794322989440       -0.203079393876057
        0.198348514773410        0.003086209258221       -0.001853209877458       -0.207158988789680
        0.200767399099915        0.003178444949981       -0.001908676470909       -0.210760946268618
        0.203186283426420        0.003259037640119       -0.001957161281202       -0.213513886986549
        0.205605167752925        0.003333002267693       -0.002001673409019       -0.215772496336586
        0.208024052079430        0.003393366829441       -0.002038027799416       -0.217108306984198
        0.210442936405935        0.003446238735584       -0.002069889553164       -0.217939430793510
        0.212861820732440        0.003483686979149       -0.002092496894996       -0.217787599334242
        0.215280705058945        0.003512854173039       -0.002110136626473       -0.217127473093415
        0.217699589385450        0.003524950779977       -0.002117530378912       -0.215439116919471
        0.220118473711955        0.003528074915232       -0.002119538914513       -0.213245923743135
        0.222537358038460        0.003512699960924       -0.002110440033531       -0.209995137225185
        0.224956242364965        0.003487778052638       -0.002095607666450       -0.206250255923509
        0.227375126691470        0.003443186344285       -0.002068960253388       -0.201435110166930
        0.229794011017975        0.003388608839244       -0.002036311709191       -0.196144007761110
        0.232212895344480        0.003313484695632       -0.001991316094406       -0.189787176987088
        0.234631779670985        0.003228088528083       -0.001940142661731       -0.182979921274249
        0.237050663997490        0.003121594668372       -0.001876285127056       -0.175128915316330
        0.239469548323995        0.003004709988097       -0.001806173160513       -0.166860288542883
        0.241888432650500        0.002866529274419       -0.001723251532735       -0.157587276953986
        0.244307316977005        0.002718018624803       -0.001634106571444       -0.147936478043906
        0.246726201303510        0.002548387516593       -0.001532250969073       -0.137337698189683
        0.249145085630015        0.002368676365935       -0.001424316772666       -0.126407628197818
        0.251563969956520        0.002168409089705       -0.001304004860218       -0.114602377323206
        0.253982854283025        0.001958506775453       -0.001177876744282       -0.102518510655114
        0.256401738609530        0.001729009387451       -0.001039942941272       -0.089647730032022
        0.258820622936035        0.001490519715262       -0.000896574894843       -0.076556582260474
        0.261239507262540        0.001233793429728       -0.000742213098326       -0.062781049861923
        0.263658391589045        0.000968914369151       -0.000582918283530       -0.048848261290625
        0.266077275915550        0.000687547734325       -0.000413677789847       -0.034346417651344
        0.268496160242055        0.000399059865623       -0.000240122155876       -0.019754479924737
        0.270915044568560        0.000096209586908       -0.000057896605667       -0.004719919665748
        0.273333928895065       -0.000212546830193        0.000127914509928        0.010334419737633
        0.275752813221570       -0.000533186403250        0.000320905194780        0.025695751190257
        0.278171697548075       -0.000858345653159        0.000516647458749        0.041004365026288
        0.280590581874580       -0.001192584146993        0.000717882030991        0.056477223914757
        0.283009466201085       -0.001529800280053        0.000920939336550        0.071823714592154
        0.285428350527590       -0.001873003591836        0.001127626812992        0.087186809956286
        0.287847234854095       -0.002217506151339        0.001335125025288        0.102349800632847
        0.290266119180600       -0.002564658793740        0.001544242512858        0.117379189891420
        0.292685003507105       -0.002911318367481        0.001753089297300        0.132135742371778
        0.295103887833610       -0.003257095058643        0.001961425530414        0.146608314753921
        0.297522772160115       -0.003600497797726        0.002168355699080        0.160737417347337
        0.299941656486620       -0.003939343322916        0.002372559646002        0.174434407389290
        0.302360540813125       -0.004273873404300        0.002574185344755        0.187720475081153
        0.304779425139630       -0.004600089617302        0.002770819136236        0.200430948329847
        0.307198309466135       -0.004920018469532        0.002963684095105        0.212667277855651
        0.309617193792640       -0.005227857152741        0.003149279437405        0.224191531818705
        0.312036078119145       -0.005527438115774        0.003329916419792        0.235183655364929
        0.314454962445650       -0.005811198277912        0.003501033576412        0.245336480472874
        0.316873846772155       -0.006084765228288        0.003666024088735        0.254905363628983
        0.319292731098660       -0.006338893288594        0.003819312450779        0.263519111398726
        0.321711615425165       -0.006580961632272        0.003965347713493        0.271504143532695
        0.324130499751670       -0.006800152822683        0.004097606927767        0.278431552138607
        0.326549384078175       -0.007005521143166        0.004221549061464        0.284693280482015
        0.328968268404680       -0.007184820359734        0.004329789648487        0.289810011485887
        0.331387152731185       -0.007348670913938        0.004428731995757        0.294232573847889
        0.333806037057690       -0.007483571171263        0.004510234367730        0.297439417881627
        0.336224921384195       -0.007601567356264        0.004581559853577        0.299932633052215
        0.338643805710700       -0.007688103950988        0.004633930636078        0.301157346787978
        0.341062690037205       -0.007756482828494        0.004675367068382        0.301658426353051
        0.343481574363710       -0.007791321306664        0.004696591640647        0.300857168153573
        0.345900458690215       -0.007806979275513        0.004706262868964        0.299332018651369
        0.348319343016720       -0.007787495330403        0.004694753067545        0.296490355890376
        0.350738227343225       -0.007748065086480        0.004671224954925        0.292934446009990
        0.353157111669730       -0.007672414592817        0.004625860935564        0.288067913198221
        0.355575995996235       -0.007576331614261        0.004568181155282        0.282506687055319
        0.357994880322740       -0.007443509134357        0.004488346479026        0.275660880584268
        0.360413764649245       -0.007290066079046        0.004396077226802        0.268149704973540
        0.362832648975750       -0.007099950355633        0.004281686328769        0.259399907442736
        0.365251533302255       -0.006889337956023        0.004154929141100        0.250023548288379
        0.367670417628760       -0.006642723132193        0.004006446453487        0.239473882917786
        0.370089301955265       -0.006376056414700        0.003845858443190        0.228345513808559
        0.372508186281770       -0.006074667986912        0.003664308576471        0.216127637221297
        0.374927070608275       -0.005753996921719        0.003471109535567        0.203387390774572
        0.377345954934780       -0.005400491728389        0.003258078071112        0.189658740299770
        0.379764839261285       -0.005028795721017        0.003034048046099        0.175471820971425
        0.382183723587790       -0.004626745586218        0.002791672656499        0.160413440375053
        0.384602607914295       -0.004207911543328        0.002539139768518        0.144967825025710
        0.387021492240800       -0.003761770521104        0.002270091555130        0.128781800033653
        0.389440376567305       -0.003300554548484        0.001991910013689        0.112285559883081
        0.391859260893810       -0.002815610037042        0.001699365130270        0.095192101827653
        0.394278145220315       -0.002317583146810        0.001398883570091        0.077870386197044
        0.396697029546820       -0.001799891453372        0.001086485382902        0.060104608426855
        0.399115913873325       -0.001271369960930        0.000767505835036        0.042196336726272
        0.401534798199830       -0.000727677189164        0.000439318049423        0.024004773929942
        0.403953682526335       -0.000175638761373        0.000106046036255        0.005759087569353
        0.406372566852840        0.000386711841613       -0.000233502606069       -0.012603987230614
        0.408791451179345        0.000954725271647       -0.000576516190398       -0.030931457035567
        0.411210335505850        0.001527898135918       -0.000922694873732       -0.049207859433671
        0.413629219832355        0.002103889147264       -0.001270619273735       -0.067358848685359
        0.416048104158860        0.002679671789647       -0.001618464806947       -0.085290392793628
        0.418466988485365        0.003255306309124       -0.001966261333472       -0.103007925004728
        0.420885872811870        0.003825233576344       -0.002310653521589       -0.120340353732884
        0.423304757138375        0.004391967966735       -0.002653152788230       -0.137372660671435
        0.425723641464880        0.004947453206692       -0.002988894290646       -0.153859533275920
        0.428142525791385        0.005496667659647       -0.003320877532420       -0.169963913118196
        0.430561410117890        0.006029138789803       -0.003642776916518       -0.185370387389851
        0.432980294444395        0.006552274954842       -0.003959060065550       -0.200316938020368
        0.435399178770900        0.007053313293426       -0.004262016680197       -0.214423385963603
        0.437818063097405        0.007542013975164       -0.004557535795472       -0.227998552941476
        0.440236947423910        0.008003493619040       -0.004836625026820       -0.240603951260075
        0.442655831750415        0.008449742296789       -0.005106521620377       -0.252613832724465
        0.445074716076920        0.008863967770093       -0.005357079054456       -0.263538872842669
        0.447493600403425        0.009260225638835       -0.005596783826499       -0.273812227328956
        0.449912484729930        0.009620065501117       -0.005814486830712       -0.282902094005128
        0.452331369056435        0.009959403703690       -0.006019800322375       -0.291293001748960
        0.454750253382940        0.010258417799028       -0.006200745572483       -0.298419774534340
        0.457169137709445        0.010534642520671       -0.006367914268555       -0.304809908298716
        0.459588022035950        0.010767200574890       -0.006508689789635       -0.309874546089214
        0.462006906362455        0.010974968708160       -0.006634476254849       -0.314175013786231
        0.464425790688960        0.011136358045010       -0.006732226614254       -0.317108889423338
        0.466844675015465        0.011271281210727       -0.006813972325560       -0.319261617720160
        0.469263559341970        0.011357801464377       -0.006866455712210       -0.320027576907255
        0.471682443668475        0.011416536297106       -0.006902135354809       -0.320006212485339
