#             time (fs)      |   total net charge (e)  |   charge (atom_1) (e)   |   charge (atom_2) (e)   |        ...        |   charge (atom_N) (e)   |
          0.000000000000000       -0.000000000000000       -0.000000000000000        0.000000000000000
          0.120944216325250        0.000000181719323       -0.068919075371967        0.068919257091290
          0.241888432650500        0.000000229454120        0.215775833920801       -0.215775604466681
          0.362832648975750        0.000000182716461       -0.357234847737616        0.357235030454077
          0.483776865301000        0.000000148972897        0.419085814766199       -0.419085665793302
          0.604721081626250        0.000000151034769       -0.367108222043549        0.367108373078318
          0.725665297951500        0.000000174722714        0.218131545356064       -0.218131370633350
          0.846609514276750        0.000000201808016       -0.034825480368453        0.034825682176469
          0.967553730602000        0.000000214362082       -0.102900896289277        0.102901110651359
          1.088497946927250        0.000000197429307        0.142120192321261       -0.142119994891954
          1.209442163252500        0.000000187569780       -0.084799231922345        0.084799419492124
          1.330386379577750        0.000000234920645       -0.019568306149181        0.019568541069826
          1.451330595903000        0.000000259503551        0.100018968001769       -0.100018708498218
          1.572274812228250        0.000000144928957       -0.094588898317892        0.094589043246849
          1.693219028553500       -0.000000071473595       -0.016117181562824        0.016117110089229
          1.814163244878750       -0.000000290389440        0.190598846416908       -0.190599136806348
          1.935107461204000       -0.000000488402846       -0.345341846650088        0.345341358247242
          2.056051677529250       -0.000000681202960        0.399947702343558       -0.399948383546518
          2.176995893854500       -0.000000820564645       -0.318370960775736        0.318370140211091
          2.297940110179750       -0.000000877142567        0.127450388673568       -0.127451265816135
          2.418884326505000       -0.000000935707473        0.090332206906711       -0.090333142614184
          2.539828542830250       -0.000001102868030       -0.229924610161943        0.229923507293913
          2.660772759155500       -0.000001321310296        0.217426682211114       -0.217428003521410
          2.781716975480750       -0.000001488889679       -0.059929864359097        0.059928375469418
          2.902661191806000       -0.000001685986729       -0.144061922001701        0.144060236014973
          3.023605408131250       -0.000002085591789        0.249974968114058       -0.249977053705847
          3.144549624456500       -0.000002784160292       -0.150748656608914        0.150745872448622
          3.265493840781750       -0.000003815309860       -0.145540476943255        0.145536661633395
          3.386438057107000       -0.000005180722927        0.491577983437988       -0.491583164160915
          3.507382273432250       -0.000007008832417       -0.657076352352595        0.657069343520178
          3.628326489757500       -0.000009824848014        0.456593900534347       -0.456603725382361
          3.749270706082750       -0.000014003001785        0.100491290285383       -0.100505293287168
          3.870214922408000       -0.000018320698279       -0.725262551490814        0.725244230792536
          3.991159138733250       -0.000021179444582        0.928526092046739       -0.928547271491321
          4.112103355058500       -0.000025523594280       -0.365832809310698        0.365807285716418
          4.233047571383750       -0.000030058032388       -0.663269876184968        0.663239818152579
          4.353991787709000       -0.000021861722730        1.087881790930948       -1.087903652653678
          4.474936004034250       -0.000017907875858       -0.099671177918339        0.099653270042481
          4.595880220359500       -0.000011852330419       -1.083448415385889        1.083436563055471
          4.716824436684750        0.000000388213029        0.379443445207015       -0.379443056993986
          4.837768653010000       -0.000016204900324        0.984018129850638       -0.984034334750962
          4.958712869335250       -0.000021843522443       -0.346800450562200        0.346778607039758
          5.079657085660500       -0.000045837467976       -0.941421286704120        0.941375449236144
          5.200601301985750       -0.000061339455623        0.070085104337379       -0.070146443793003
          5.321545518311000       -0.000060443053746        0.984778299013177       -0.984838742066923
          5.442489734636251       -0.000063327396441        0.506486750551810       -0.506550077948251
          5.563433950961501       -0.000039721173806       -0.515881671939659        0.515841950765853
          5.684378167286750       -0.000039385050165       -0.910345966973011        0.910306581922846
          5.805322383612000       -0.000038640641246       -0.330062642919360        0.330024002278113
          5.926266599937250       -0.000029591231025        0.504527855631280       -0.504557446862305
          6.047210816262500       -0.000038179036124        0.916009350597850       -0.916047529633974
          6.168155032587750       -0.000044915951422        0.502021535526437       -0.502066451477859
          6.289099248913001       -0.000048765697827       -0.175624185435943        0.175575419738116
          6.410043465238251       -0.000043732438347       -0.734856833685376        0.734813101247029
          6.530987681563500       -0.000048687370519       -0.798564190755748        0.798515503385230
          6.651931897888750       -0.000045389599260       -0.361346389322297        0.361300999723037
          6.772876114214000       -0.000053836698081        0.148147853310215       -0.148201690008295
          6.893820330539250       -0.000060896950818        0.586378562174198       -0.586439459125016
          7.014764546864500       -0.000075891088223        0.779774065309009       -0.779849956397231
          7.135708763189751       -0.000072875740294        0.530660377879752       -0.530733253620046
          7.256652979515001       -0.000062598598249        0.173508092194276       -0.173570690792526
          7.377597195840250       -0.000043285064671       -0.117483266738570        0.117439981673898
          7.498541412165500       -0.000023568607308       -0.407664695056606        0.407641126449299
          7.619485628490750       -0.000011823637597       -0.622804394448818        0.622792570811221
          7.740429844816000       -0.000007549403969       -0.635958033588194        0.635950484184225
          7.861374061141250       -0.000014850134627       -0.434982152775273        0.434967302640646
          7.982318277466501       -0.000031244302989       -0.253561629323153        0.253530385020164
          8.103262493791750       -0.000052636740154       -0.132380194073684        0.132327557333530
          8.224206710117000       -0.000068871152495       -0.130013305672768        0.129944434520274
          8.345150926442249       -0.000084885063788       -0.099807452756981        0.099722567693192
          8.466095142767500       -0.000096034138793       -0.139031098078944        0.138935063940152
          8.587039359092751       -0.000104244353381       -0.222876922104991        0.222772677751611
          8.707983575418000       -0.000110208985201       -0.305834554585295        0.305724345600093
          8.828927791743251       -0.000106389897173       -0.412488118595335        0.412381728698161
          8.949872008068500       -0.000103384955052       -0.477827250878530        0.477723865923478
          9.070816224393750       -0.000106482041025       -0.452191390068537        0.452084908027512
          9.191760440718999       -0.000106802097074       -0.373494974252778        0.373388172155704
          9.312704657044250       -0.000102845053095       -0.308846223363018        0.308743378309923
          9.433648873369501       -0.000098046035611       -0.308563119336826        0.308465073301215
          9.554593089694750       -0.000097935184966       -0.344568304296801        0.344470369111835
          9.675537306020001       -0.000098921429726       -0.389081731595856        0.388982810166131
          9.796481522345250       -0.000099204348792       -0.411800995969399        0.411701791620607
          9.917425738670500       -0.000099265814020       -0.410831215111694        0.410731949297675
         10.038369954995749       -0.000101156074952       -0.382229292440887        0.382128136365935
         10.159314171321000       -0.000102004950892       -0.360434999940451        0.360332994989559
         10.280258387646251       -0.000101016017692       -0.350298059964172        0.350197043946480
         10.401202603971500       -0.000098621908613       -0.368763205093552        0.368664583184939
         10.522146820296751       -0.000098167374279       -0.389347113198417        0.389248945824138
         10.643091036622000       -0.000099586758814       -0.398652579283397        0.398552992524583
         10.764035252947250       -0.000100168900282       -0.386685452649556        0.386585283749274
         10.884979469272501       -0.000099644203120       -0.373527409136875        0.373427764933755
         11.005923685597750       -0.000098811799236       -0.368935779629881        0.368836967830645
         11.126867901923001       -0.000099113567660       -0.374839204946836        0.374740091379176
         11.247812118248250       -0.000099596174594       -0.382197618140518        0.382098021965925
         11.368756334573501       -0.000099501222317       -0.384560144622061        0.384460643399743
         11.489700550898750       -0.000099082285952       -0.382774113748266        0.382675031462314
         11.610644767224001       -0.000099096925265       -0.378285053226916        0.378185956301651
         11.731588983549251       -0.000099490354455       -0.376801126224291        0.376701635869836
         11.852533199874500       -0.000099705132940       -0.377054842099409        0.376955136966469
         11.973477416199751       -0.000099344193007       -0.379890749301317        0.379791405108309
         12.094421632525000       -0.000099058095726       -0.381306851295357        0.381207793199631
         12.215365848850251       -0.000099195620399       -0.381003394982842        0.380904199362443
         12.336310065175500       -0.000099519330391       -0.379247009641557        0.379147490311166
         12.457254281500751       -0.000099620262670       -0.378124568662802        0.378024948400132
         12.578198497826001       -0.000099269013662       -0.378718163540989        0.378618894527327
         12.699142714151250       -0.000099132061291       -0.379820983984341        0.379721851923050
         12.820086930476501       -0.000099249402545       -0.380481747231586        0.380382497829041
         12.941031146801750       -0.000099522287138       -0.379841859077465        0.379742336790327
         13.061975363127001       -0.000099508885843       -0.379128633417061        0.379029124531219
         13.182919579452250       -0.000099224196375       -0.378903103696534        0.378803879500159
         13.303863795777501       -0.000099174524923       -0.379417722158228        0.379318547633306
         13.424808012102751       -0.000099306762739       -0.379882853877948        0.379783547115209
         13.545752228428000       -0.000099541418810       -0.379825796874214        0.379726255455405
         13.666696444753251       -0.000099438407311       -0.379455364974213        0.379355926566903
         13.787640661078500       -0.000099209587390       -0.379172741025301        0.379073531437910
         13.908584877403751       -0.000099182814254       -0.379358644851859        0.379259462037605
         14.029529093729000       -0.000099344304600       -0.379629377770988        0.379530033466389
         14.150473310054251       -0.000099537786940       -0.379748626499205        0.379649088712265
         14.271417526379501       -0.000099414534562       -0.379544782384700        0.379445367850137
         14.392361742704750       -0.000099236443916       -0.379336692650645        0.379237456206730
         14.513305959030001       -0.000099199981454       -0.379358518589455        0.379259318608000
         14.634250175355250       -0.000099339892325       -0.379531784868011        0.379432444975686
         14.755194391680501       -0.000099468110586       -0.379675266420214        0.379575798309629
         14.876138608005750       -0.000099400702293       -0.379572371439117        0.379472970736824
         14.997082824331001       -0.000099308995430       -0.379432123271728        0.379332814276298
         15.118027040656251       -0.000099279531085       -0.379379760301770        0.379280480770685
         15.238971256981500       -0.000099317115650       -0.379492368908041        0.379393051792391
         15.359915473306751       -0.000099327684155       -0.379602409110832        0.379503081426677
         15.480859689632000       -0.000099341592862       -0.379571933531631        0.379472591938769
         15.601803905957251       -0.000099397162980       -0.379482528384969        0.379383131221989
         15.722748122282500       -0.000099443658067       -0.379420689600654        0.379321245942588
         15.843692338607751       -0.000099253557287       -0.379479772612036        0.379380519054748
         15.964636554933001       -0.000098853589961       -0.379539512206589        0.379440658616629
         16.085580771258250       -0.000099002105736       -0.379545945178974        0.379446943073238
         16.206524987583499       -0.000099847409150       -0.379510434350145        0.379410586940996
         16.327469203908752       -0.000100593497036       -0.379486767204863        0.379386173707827
         16.448413420234001       -0.000099805808804       -0.379495915257754        0.379396109448950
         16.569357636559250       -0.000098903932158       -0.379505141844912        0.379406237912754
         16.690301852884499       -0.000098761368120       -0.379507783044499        0.379409021676379
         16.811246069209751       -0.000099175791362       -0.379506455146124        0.379407279354762
         16.932190285535000       -0.000099325839831       -0.379506230177931        0.379406904338100
         17.053134501860249       -0.000099326047337       -0.379506223732407        0.379406897685070
         17.174078718185502       -0.000099326047337       -0.379506223732407        0.379406897685070
         17.295022934510751       -0.000099326047337       -0.379506223732407        0.379406897685070
         17.415967150836000       -0.000099326047337       -0.379506223732407        0.379406897685070
         17.536911367161249       -0.000099326047337       -0.379506223732407        0.379406897685070
         17.657855583486501       -0.000099326047337       -0.379506223732407        0.379406897685070
         17.778799799811750       -0.000099326047337       -0.379506223732407        0.379406897685070
         17.899744016136999       -0.000099326047337       -0.379506223732407        0.379406897685070
         18.020688232462252       -0.000099326047337       -0.379506223732407        0.379406897685070
         18.141632448787501       -0.000099326047337       -0.379506223732407        0.379406897685070
         18.262576665112750       -0.000099326047337       -0.379506223732407        0.379406897685070
         18.383520881437999       -0.000099326047337       -0.379506223732407        0.379406897685070
         18.504465097763251       -0.000099326047337       -0.379506223732407        0.379406897685070
         18.625409314088500       -0.000099326047337       -0.379506223732407        0.379406897685070
         18.746353530413749       -0.000099326047337       -0.379506223732407        0.379406897685070
         18.867297746739002       -0.000099326047337       -0.379506223732407        0.379406897685070
         18.988241963064251       -0.000099326047337       -0.379506223732407        0.379406897685070
         19.109186179389500       -0.000099326047337       -0.379506223732407        0.379406897685070
         19.230130395714749       -0.000099326047337       -0.379506223732407        0.379406897685070
         19.351074612040001       -0.000099326047337       -0.379506223732407        0.379406897685070
         19.472018828365250       -0.000099326047337       -0.379506223732407        0.379406897685070
         19.592963044690499       -0.000099326047337       -0.379506223732407        0.379406897685070
         19.713907261015752       -0.000099326047337       -0.379506223732407        0.379406897685070
         19.834851477341001       -0.000099326047337       -0.379506223732407        0.379406897685070
         19.955795693666250       -0.000099326047337       -0.379506223732407        0.379406897685070
         20.076739909991499       -0.000099326047337       -0.379506223732407        0.379406897685070
         20.197684126316751       -0.000099326047337       -0.379506223732407        0.379406897685070
         20.318628342642000       -0.000099326047337       -0.379506223732407        0.379406897685070
         20.439572558967249       -0.000099326047337       -0.379506223732407        0.379406897685070
         20.560516775292502       -0.000099326047337       -0.379506223732407        0.379406897685070
         20.681460991617751       -0.000099326047337       -0.379506223732407        0.379406897685070
         20.802405207943000       -0.000099326047337       -0.379506223732407        0.379406897685070
         20.923349424268253       -0.000099326047337       -0.379506223732407        0.379406897685070
         21.044293640593501       -0.000099326047337       -0.379506223732407        0.379406897685070
         21.165237856918750       -0.000099326047337       -0.379506223732407        0.379406897685070
         21.286182073243999       -0.000099326047337       -0.379506223732407        0.379406897685070
         21.407126289569252       -0.000099326047337       -0.379506223732407        0.379406897685070
         21.528070505894501       -0.000099326047337       -0.379506223732407        0.379406897685070
         21.649014722219750       -0.000099326047337       -0.379506223732407        0.379406897685070
         21.769958938545003       -0.000099326047337       -0.379506223732407        0.379406897685070
         21.890903154870252       -0.000099326047337       -0.379506223732407        0.379406897685070
         22.011847371195501       -0.000099326047337       -0.379506223732407        0.379406897685070
         22.132791587520749       -0.000099326047337       -0.379506223732407        0.379406897685070
         22.253735803846002       -0.000099326047337       -0.379506223732407        0.379406897685070
         22.374680020171251       -0.000099326047337       -0.379506223732407        0.379406897685070
         22.495624236496500       -0.000099326047337       -0.379506223732407        0.379406897685070
         22.616568452821753       -0.000099326047337       -0.379506223732407        0.379406897685070
         22.737512669147002       -0.000099326047337       -0.379506223732407        0.379406897685070
         22.858456885472251       -0.000099326047337       -0.379506223732407        0.379406897685070
         22.979401101797500       -0.000099326047337       -0.379506223732407        0.379406897685070
         23.100345318122752       -0.000099326047337       -0.379506223732407        0.379406897685070
