#           time (fs)       | force (atom_1) (H/b)   |  force (atom_2) (H/b)  |           ...          |  force (atom_N) (H/b)  |
        0.000000000000000       -0.000000000000000       -0.000000000000000       -0.001977038000788       -0.000000000000000       -0.000000000000000        0.001977038000788
        0.120944216325250       -0.000015631742073       -0.000008279160959       -0.003295101350245        0.000015631742073        0.000008279160819        0.003295101350245
        0.241888432650500       -0.000043544492308       -0.000020557865911       -0.004578428965417        0.000043544492308        0.000020557865968        0.004578428965417
        0.362832648975750       -0.000083100868116       -0.000043431632457       -0.005811246149590        0.000083100868116        0.000043431632995        0.005811246149590
        0.483776865301000       -0.000133343705566       -0.000063777037222       -0.006977416997530        0.000133343705566        0.000063777036916        0.006977416997530
        0.604721081626250       -0.000193008726564       -0.000097022408769       -0.008061524472237        0.000193008726564        0.000097022407794        0.008061524472237
        0.725665297951500       -0.000260527546498       -0.000125931033698       -0.009048505656575        0.000260527546498        0.000125931034469        0.009048505656575
        0.846609514276750       -0.000334057666329       -0.000163543523260       -0.009924376175035        0.000334057666329        0.000163543524538        0.009924376175035
        0.967553730602000       -0.000411520894073       -0.000199546163968       -0.010676597371956        0.000411520894073        0.000199546162594        0.010676597371956
        1.088497946927250       -0.000490641228346       -0.000238130763418       -0.011294154870126        0.000490641228346        0.000238130762089        0.011294154870126
        1.209442163252500       -0.000568994684140       -0.000280046017060       -0.011767810161547        0.000568994684140        0.000280046019018        0.011767810161547
        1.330386379577750       -0.000644067775409       -0.000307696819971       -0.012090352959732        0.000644067775409        0.000307696821056        0.012090352959732
        1.451330595903000       -0.000713315960994       -0.000350028197152       -0.012256706106560        0.000713315960994        0.000350028194804        0.012256706106560
        1.572274812228250       -0.000774267795536       -0.000368847379791       -0.012264691348502        0.000774267795536        0.000368847379166        0.012264691348502
        1.693219028553500       -0.000824560645935       -0.000410914579903       -0.012114446912351        0.000824560645935        0.000410914582320        0.012114446912351
        1.814163244878750       -0.000861967292440       -0.000408724926523       -0.011807951942818        0.000861967292440        0.000408724926625        0.011807951942818
        1.935107461204000       -0.000884527337043       -0.000438106259897       -0.011350076501253        0.000884527337043        0.000438106257764        0.011350076501253
        2.056051677529250       -0.000890593117249       -0.000422485717792       -0.010748228457767        0.000890593117249        0.000422485718104        0.010748228457767
        2.176995893854500       -0.000878852474245       -0.000441172635780       -0.010011863114547        0.000878852474245        0.000441172637374        0.010011863114547
        2.297940110179750       -0.000848280352905       -0.000406211866545       -0.009151390810350        0.000848280352905        0.000406211866044        0.009151390810350
        2.418884326505000       -0.000798275513286       -0.000398014782370       -0.008179321481415        0.000798275513286        0.000398014781422        0.008179321481415
        2.539828542830250       -0.000728707674870       -0.000352646531178       -0.007110217344455        0.000728707674870        0.000352646531618        0.007110217344455
        2.660772759155500       -0.000639794507768       -0.000322988248950       -0.005959085609112        0.000639794507768        0.000322988249346        0.005959085609112
        2.781716975480750       -0.000532015998718       -0.000268836148287       -0.004740533564407        0.000532015998718        0.000268836148064        0.004740533564407
        2.902661191806000       -0.000406335223651       -0.000204861266650       -0.003470758380453        0.000406335223651        0.000204861266612        0.003470758380453
        3.023605408131250       -0.000264116657118       -0.000147554744809       -0.002166587268047        0.000264116657118        0.000147554744776        0.002166587268047
        3.144549624456500       -0.000106835743147       -0.000059032275990       -0.000843096259114        0.000106835743147        0.000059032275909        0.000843096259114
        3.265493840781750        0.000063985387899       -0.000003174403017        0.000486526517326       -0.000063985387899        0.000003174403165       -0.000486526517326
        3.386438057107000        0.000246444880192        0.000114503988681        0.001808175534121       -0.000246444880192       -0.000114503988633       -0.001808175534121
        3.507382273432250        0.000438231270220        0.000170256318569        0.003106743481119       -0.000438231270220       -0.000170256318644       -0.003106743481119
        3.628326489757500        0.000637184495448        0.000302096993974        0.004370105283294       -0.000637184495448       -0.000302096993972       -0.004370105283294
        3.749270706082750        0.000841057383195        0.000354023310363        0.005587039905636       -0.000841057383195       -0.000354023310602       -0.005587039905636
        3.870214922408000        0.001047439952788        0.000495908930204        0.006746586511918       -0.001047439952788       -0.000495908930130       -0.006746586511918
        3.991159138733250        0.001253733875856        0.000552760723255        0.007837831824144       -0.001253733875856       -0.000552760722584       -0.007837831824144
        4.112103355058500        0.001457631270124        0.000686738002942        0.008852800308492       -0.001457631270124       -0.000686738003302       -0.008852800308492
        4.233047571383750        0.001656855493451        0.000744435879468        0.009784509988006       -0.001656855493451       -0.000744435880584       -0.009784509988006
        4.353991787709000        0.001849062467055        0.000862061386781        0.010626269939398       -0.001849062467055       -0.000862061385903       -0.010626269939398
        4.474936004034250        0.002031868423015        0.000933327299047        0.011371799022235       -0.002031868423015       -0.000933327297627       -0.011371799022235
        4.595880220359500        0.002203158115103        0.001021013466002        0.012016859235603       -0.002203158115103       -0.001021013467503       -0.012016859235603
        4.716824436684750        0.002360907170250        0.001096397536013        0.012558064644613       -0.002360907170250       -0.001096397537476       -0.012558064644613
        4.837768653010000        0.002503045086015        0.001146977081722        0.012992076728766       -0.002503045086015       -0.001146977079586       -0.012992076728766
        4.958712869335250        0.002627758645252        0.001235854429645        0.013317147621348       -0.002627758645252       -0.001235854428413       -0.013317147621348
        5.079657085660500        0.002733239974883        0.001247913942330        0.013531701620564       -0.002733239974883       -0.001247913944914       -0.013531701620564
        5.200601301985750        0.002817738406631        0.001333034152352        0.013634579934534       -0.002817738406631       -0.001333034153110       -0.013634579934534
        5.321545518311000        0.002879464775731        0.001304434104791        0.013624555472878       -0.002879464775731       -0.001304434102036       -0.013624555472878
        5.442489734636251        0.002917264063193        0.001385600861779        0.013503467923544       -0.002917264063193       -0.001385600861601       -0.013503467923544
        5.563433950961501        0.002929839812208        0.001327676065312        0.013272397517955       -0.002929839812208       -0.001327676067919       -0.013272397517955
        5.684378167286750        0.002915861403503        0.001384314695813        0.012932232548519       -0.002915861403503       -0.001384314695467       -0.012932232548519
        5.805322383612000        0.002874009823837        0.001300235567606        0.012483900034105       -0.002874009823837       -0.001300235565438       -0.012483900034105
        5.926266599937250        0.002803864694825        0.001324092576627        0.011932148232374       -0.002803864694825       -0.001324092577284       -0.011932148232374
        6.047210816262500        0.002704873964832        0.001229177185170        0.011280878754689       -0.002704873964832       -0.001229177186708       -0.011280878754689
        6.168155032587750        0.002576380313394        0.001204975129930        0.010533343707645       -0.002576380313394       -0.001204975129253       -0.010533343707645
        6.289099248913001        0.002417921077212        0.001103991725872        0.009693416389808       -0.002417921077212       -0.001103991724984       -0.009693416389808
        6.410043465238251        0.002229967753016        0.001024946505573        0.008768444008317       -0.002229967753016       -0.001024946505990       -0.008768444008317
        6.530987681563500        0.002013244429536        0.000926263659876        0.007766291650872       -0.002013244429536       -0.000926263660188       -0.007766291650872
        6.651931897888750        0.001768245513903        0.000789423605815        0.006693464240971       -0.001768245513903       -0.000789423605858       -0.006693464240971
        6.772876114214000        0.001496187880002        0.000694644113283        0.005558763253166       -0.001496187880002       -0.000694644113314       -0.005558763253166
        6.893820330539250        0.001198618587600        0.000504780682683        0.004371638974407       -0.001198618587600       -0.000504780682221       -0.004371638974407
        7.014764546864500        0.000878111278022        0.000411458007039        0.003144613822859       -0.000878111278022       -0.000411458006891       -0.003144613822859
        7.135708763189751        0.000536703759557        0.000179213081888        0.001887497485169       -0.000536703759557       -0.000179213082690       -0.001887497485169
        7.256652979515001        0.000177894989530        0.000084206890444        0.000614505770934       -0.000177894989530       -0.000084206890503       -0.000614505770934
        7.377597195840250       -0.000195364906446       -0.000172308376886       -0.000662966015783        0.000195364906446        0.000172308377676        0.000662966015783
        7.498541412165500       -0.000578626732486       -0.000276719857492       -0.001929293963605        0.000578626732486        0.000276719857384        0.001929293963605
        7.619485628490750       -0.000968466154209       -0.000538064360415       -0.003173282801762        0.000968466154209        0.000538064359800        0.003173282801762
        7.740429844816000       -0.001359375832916       -0.000656242381914       -0.004377805451762        0.001359375832916        0.000656242382124        0.004377805451762
        7.861374061141250       -0.001747014037234       -0.000899524166506       -0.005530612265332        0.001747014037234        0.000899524166691        0.005530612265332
        7.982318277466501       -0.002125500786916       -0.001034908299091       -0.006615533163991        0.002125500786916        0.001034908298960        0.006615533163991
        8.103262493791750       -0.002489444711307       -0.001238746252316       -0.007619028222826        0.002489444711307        0.001238746252504        0.007619028222826
        8.224206710117000       -0.002832546293604       -0.001388803316141       -0.008525789479697        0.002832546293604        0.001388803315968        0.008525789479697
        8.345150926442249       -0.003149565769330       -0.001537954460156       -0.009324729568294        0.003149565769330        0.001537954459676        0.009324729568294
        8.466095142767500       -0.003435328082688       -0.001696568672858       -0.010005758010004        0.003435328082688        0.001696568673472        0.010005758010004
        8.587039359092751       -0.003683736984576       -0.001775396029573       -0.010556884980396        0.003683736984576        0.001775396030096        0.010556884980396
        8.707983575418000       -0.003890230187067       -0.001928349586491       -0.010971301927021        0.003890230187067        0.001928349585440        0.010971301927021
        8.828927791743251       -0.004050206040149       -0.001938963052547       -0.011242610769742        0.004050206040149        0.001938963052169        0.011242610769742
        8.949872008068500       -0.004161078897597       -0.002074092623461       -0.011370405668767        0.004161078897597        0.002074092624753        0.011370405668767
        9.070816224393750       -0.004217941041551       -0.002011803315887       -0.011348134983345        0.004217941041551        0.002011803315999        0.011348134983345
        9.191760440718999       -0.004219891957151       -0.002104431617959       -0.011180328262180        0.004219891957151        0.002104431616747        0.011180328262180
        9.312704657044250       -0.004164838698584       -0.001987607569298       -0.010868185549709        0.004164838698584        0.001987607569430        0.010868185549709
        9.433648873369501       -0.004053864912758       -0.002028432671234       -0.010421042928241        0.004053864912758        0.002028432672070        0.010421042928241
        9.554593089694750       -0.003885127280637       -0.001864548706340       -0.009840303531708        0.003885127280637        0.001864548706101        0.009840303531708
        9.675537306020001       -0.003661525977469       -0.001828053660031       -0.009139146436671        0.003661525977469        0.001828053659784        0.009139146436671
        9.796481522345250       -0.003385063948611       -0.001640903601544       -0.008327795529645        0.003385063948611        0.001640903601670        0.008327795529645
        9.917425738670500       -0.003059425186862       -0.001528782551672       -0.007419971966518        0.003059425186862        0.001528782551380        0.007419971966518
       10.038369954995749       -0.002686889783991       -0.001332004801960       -0.006425265351979        0.002686889783991        0.001332004802110        0.006425265351979
       10.159314171321000       -0.002272535181474       -0.001131158750960       -0.005359321854836        0.002272535181474        0.001131158751612        0.005359321854836
       10.280258387646251       -0.001822417392511       -0.000940965091785       -0.004239198088020        0.001822417392511        0.000940965091206        0.004239198088020
       10.401202603971500       -0.001341123649159       -0.000668481023653       -0.003077648915391        0.001341123649159        0.000668481022968        0.003077648915391
       10.522146820296751       -0.000834178485068       -0.000494209019421       -0.001888862087152        0.000834178485068        0.000494209020362        0.001888862087152
       10.643091036622000       -0.000306701374883       -0.000156814526406       -0.000685366810663        0.000306701374883        0.000156814526875        0.000685366810663
       10.764035252947250        0.000233304983194        0.000001097068117        0.000514602869626       -0.000233304983194       -0.000001097069353       -0.000514602869626
       10.884979469272501        0.000782169721012        0.000372537930946        0.001703180044119       -0.000782169721012       -0.000372537931084       -0.001703180044119
       11.005923685597750        0.001333290291806        0.000515518290848        0.002866590360568       -0.001333290291806       -0.000515518289619       -0.002866590360568
       11.126867901923001        0.001882163301854        0.000898505024055        0.003996198409810       -0.001882163301854       -0.000898505024167       -0.003996198409810
       11.247812118248250        0.002420398995623        0.001039712872864        0.005075636584714       -0.002420398995623       -0.001039712873907       -0.005075636584714
       11.368756334573501        0.002944690214137        0.001396980628015        0.006099852925355       -0.002944690214137       -0.001396980627866       -0.006099852925355
       11.489700550898750        0.003449627642796        0.001541546427258        0.007059725351971       -0.003449627642796       -0.001541546426666       -0.007059725351971
       11.610644767224001        0.003931250410668        0.001847847995148        0.007949483522805       -0.003931250410668       -0.001847847995038       -0.007949483522805
       11.731588983549251        0.004383536603985        0.002012506108938        0.008759499471506       -0.004383536603985       -0.002012506109033       -0.008759499471506
       11.852533199874500        0.004803220071832        0.002240714126555        0.009486027621792       -0.004803220071832       -0.002240714127058       -0.009486027621792
       11.973477416199751        0.005186920547905        0.002420784838445        0.010125266149961       -0.005186920547905       -0.002420784838771       -0.010125266149961
       12.094421632525000        0.005531024735165        0.002557153270076        0.010673134400536       -0.005531024735165       -0.002557153269039       -0.010673134400536
       12.215365848850251        0.005832814820777        0.002759555813884        0.011127446228541       -0.005832814820777       -0.002759555813337       -0.011127446228541
       12.336310065175500        0.006088976186914        0.002801617754885        0.011484993944470       -0.006088976186914       -0.002801617756308       -0.011484993944470
       12.457254281500751        0.006297777596050        0.003003041668734        0.011745677384486       -0.006297777596050       -0.003003041669202       -0.011745677384486
       12.578198497826001        0.006455813079002        0.002954276271008        0.011906328851478       -0.006455813079002       -0.002954276269333       -0.011906328851478
       12.699142714151250        0.006563237783919        0.003144688646591        0.011970438184929       -0.006563237783919       -0.003144688646407       -0.011970438184929
       12.820086930476501        0.006617245866360        0.003028064175047        0.011936029788746       -0.006617245866360       -0.003028064176749       -0.011936029788746
       12.941031146801750        0.006616963313279        0.003172042648667        0.011804695063756       -0.006616963313279       -0.003172042648506       -0.011804695063756
       13.061975363127001        0.006559543014755        0.003001928182798        0.011574515261799       -0.006559543014755       -0.003001928181298       -0.011574515261799
       13.182919579452250        0.006447139571011        0.003078990521226        0.011252431195303       -0.006447139571011       -0.003078990521585       -0.011252431195303
       13.303863795777501        0.006278659032209        0.002887800114501        0.010839527768772       -0.006278659032209       -0.002887800115626       -0.010839527768772
       13.424808012102751        0.006053977544201        0.002869592575168        0.010338555464599       -0.006053977544201       -0.002869592574890       -0.010338555464599
