#             time (fs)      |   total net charge (e)  |   charge (atom_1) (e)   |   charge (atom_2) (e)   |        ...        |   charge (atom_N) (e)   |
          0.000000000000000       -0.000000000000000       -0.000000000000000        0.000000000000000
          0.120944216325250       -0.000000000012411       -0.000076699475154        0.000076699462743
          0.241888432650500       -0.000000000029099       -0.000044341760880        0.000044341731781
          0.362832648975750       -0.000000000049320        0.000369670507772       -0.000369670557092
          0.483776865301000       -0.000000000072403       -0.000131181153346        0.000131181080943
          0.604721081626250       -0.000000000097272       -0.000549656142961        0.000549656045689
          0.725665297951500       -0.000000000122071        0.000380939264040       -0.000380939386111
          0.846609514276750       -0.000000000146648        0.000591328997335       -0.000591329143984
          0.967553730602000       -0.000000000169130       -0.000544527267808        0.000544527098678
          1.088497946927250       -0.000000000189088       -0.000781361776295        0.000781361587207
          1.209442163252500       -0.000000000204306        0.001069325943231       -0.001069326147537
          1.330386379577750       -0.000000000215341        0.000456222445247       -0.000456222660587
          1.451330595903000       -0.000000000220864       -0.001108624558995        0.001108624338131
          1.572274812228250       -0.000000000220845       -0.000599005532290        0.000599005311446
          1.693219028553500       -0.000000000215411        0.001774071323252       -0.001774071538662
          1.814163244878750       -0.000000000204306       -0.000070607555527        0.000070607351221
          1.935107461204000       -0.000000000188328       -0.001645782978455        0.001645782790126
          2.056051677529250       -0.000000000168521        0.000067746053695       -0.000067746222217
          2.176995893854500       -0.000000000145740        0.002227566236888       -0.002227566382628
          2.297940110179750       -0.000000000121698       -0.000943843587981        0.000943843466283
          2.418884326505000       -0.000000000094016       -0.001923759261972        0.001923759167955
          2.539828542830250       -0.000000000070767        0.001127790443434       -0.001127790514201
          2.660772759155500       -0.000000000045056        0.002219476337026       -0.002219476382082
          2.781716975480750       -0.000000000027612       -0.002048361562837        0.002048361535226
          2.902661191806000       -0.000000000005320       -0.001699963168426        0.001699963163106
          3.023605408131250        0.000000000003474        0.002337886622555       -0.002337886619081
          3.144549624456500        0.000000000015683        0.001622527287530       -0.001622527271846
          3.265493840781750        0.000000000014037       -0.003166498689458        0.003166498703495
          3.386438057107000        0.000000000016271       -0.000823330414201        0.000823330430472
          3.507382273432250        0.000000000006659        0.003363913174892       -0.003363913168233
          3.628326489757500       -0.000000000003903        0.000415426116318       -0.000415426120220
          3.749270706082750       -0.000000000021103       -0.003980142460549        0.003980142439446
          3.870214922408000       -0.000000000042756        0.000679183119558       -0.000679183162314
          3.991159138733250       -0.000000000061169        0.003852515123476       -0.003852515184645
          4.112103355058500       -0.000000000089719       -0.001271549677488        0.001271549587770
          4.233047571383750       -0.000000000110119       -0.004144236494279        0.004144236384159
          4.353991787709000       -0.000000000143591        0.002563806721911       -0.002563806865502
          4.474936004034250       -0.000000000160130        0.003525139804869       -0.003525139964999
          4.595880220359500       -0.000000000188676       -0.003137392230101        0.003137392041425
          4.716824436684750       -0.000000000202762       -0.003403700877838        0.003403700675076
          4.837768653010000       -0.000000000225857        0.004395032554079       -0.004395032779936
          4.958712869335250       -0.000000000234658        0.002284554687421       -0.002284554922079
          5.079657085660500       -0.000000000245052       -0.004753894705853        0.004753894460801
          5.200601301985750       -0.000000000247540       -0.001716872396187        0.001716872148647
          5.321545518311000       -0.000000000246416        0.005660253516712       -0.005660253763127
          5.442489734636251       -0.000000000240540        0.000274842447328       -0.000274842687868
          5.563433950961501       -0.000000000230031       -0.005666238941279        0.005666238711248
          5.684378167286750       -0.000000000214180        0.000669384310027       -0.000669384524207
          5.805322383612000       -0.000000000197064        0.005945858098723       -0.005945858295787
          5.926266599937250       -0.000000000168513       -0.002142072942494        0.002142072773981
          6.047210816262500       -0.000000000150925       -0.005529888016075        0.005529887865150
          6.168155032587750       -0.000000000112633        0.003261370692806       -0.003261370805439
          6.289099248913001       -0.000000000099268        0.005077539027241       -0.005077539126509
          6.410043465238251       -0.000000000052945       -0.004474188761325        0.004474188708381
          6.530987681563500       -0.000000000042701       -0.004238536128572        0.004238536085870
          6.651931897888750        0.000000000004568        0.005476800704172       -0.005476800699604
          6.772876114214000        0.000000000005786        0.003156425876425       -0.003156425870639
          6.893820330539250        0.000000000043988       -0.006220798293553        0.006220798337541
          7.014764546864500        0.000000000046490       -0.001968252999878        0.001968253046368
          7.135708763189751        0.000000000071805        0.006820750528235       -0.006820750456430
          7.256652979515001        0.000000000068660        0.000509151381223       -0.000509151312562
          7.377597195840250        0.000000000069689       -0.006996892850938        0.006996892920627
          7.498541412165500        0.000000000072597        0.000890260006844       -0.000890259934247
          7.619485628490750        0.000000000055711        0.006988612571953       -0.006988612516242
          7.740429844816000        0.000000000055419       -0.002402508099114        0.002402508154533
          7.861374061141250        0.000000000018092       -0.006611625607344        0.006611625625436
          7.982318277466501        0.000000000022125        0.003849102206485       -0.003849102184360
          8.103262493791750       -0.000000000020761        0.005892142157074       -0.005892142177835
          8.224206710117000       -0.000000000022199       -0.005084184499443        0.005084184477244
          8.345150926442249       -0.000000000064850       -0.005068795308938        0.005068795244088
          8.466095142767500       -0.000000000065910        0.006409530900785       -0.006409530966694
          8.587039359092751       -0.000000000095793        0.003650820728902       -0.003650820824695
          8.707983575418000       -0.000000000100565       -0.007098909929108        0.007098909828543
          8.828927791743251       -0.000000000114770       -0.002518121227558        0.002518121112788
          8.949872008068500       -0.000000000115984        0.008103838490291       -0.008103838606275
          9.070816224393750       -0.000000000114359        0.000564188483437       -0.000564188597795
          9.191760440718999       -0.000000000106867       -0.008105905338104        0.008105905231237
          9.312704657044250       -0.000000000095852        0.000765036420456       -0.000765036516307
          9.433648873369501       -0.000000000075663        0.008547506286328       -0.008547506361990
          9.554593089694750       -0.000000000065107       -0.002946368176776        0.002946368111670
          9.675537306020001       -0.000000000024016       -0.007842455221081        0.007842455197064
          9.796481522345250       -0.000000000021744        0.004345827742998       -0.004345827764742
          9.917425738670500        0.000000000032067        0.007516810714138       -0.007516810682071
         10.038369954995749        0.000000000019455       -0.006386971614478        0.006386971633933
         10.159314171321000        0.000000000087070       -0.006136840710726        0.006136840797796
         10.280258387646251        0.000000000062629        0.007627472025934       -0.007627471963305
         10.401202603971500        0.000000000122945        0.005000076679399       -0.005000076556454
         10.522146820296751        0.000000000090385       -0.009191624086360        0.009191624176745
         10.643091036622000        0.000000000137564       -0.003010371121098        0.003010371258663
         10.764035252947250        0.000000000111225        0.009932945427183       -0.009932945315958
         10.884979469272501        0.000000000125660        0.001230942757440       -0.001230942631779
         11.005923685597750        0.000000000108332       -0.010748825278826        0.010748825387158
         11.126867901923001        0.000000000088747        0.001209163884638       -0.001209163795891
         11.247812118248250        0.000000000094090        0.010637775062839       -0.010637774968749
         11.368756334573501        0.000000000041908       -0.003270080199117        0.003270080241024
         11.489700550898750        0.000000000057228       -0.010528831873692        0.010528831930920
         11.610644767224001       -0.000000000019212        0.005850727003430       -0.005850727022642
         11.731588983549251        0.000000000010346        0.009340158299305       -0.009340158288959
         11.852533199874500       -0.000000000066119       -0.007707919144890        0.007707919078772
         11.973477416199751       -0.000000000043079       -0.008275204935930        0.008275204892851
         12.094421632525000       -0.000000000112981        0.009978339691855       -0.009978339804836
         12.215365848850251       -0.000000000096439        0.006043139271107       -0.006043139367546
         12.336310065175500       -0.000000000137363       -0.011148018084278        0.011148017946916
         12.457254281500751       -0.000000000132813       -0.004173289342771        0.004173289209958
         12.578198497826001       -0.000000000151080        0.012605870566060       -0.012605870717140
         12.699142714151250       -0.000000000151133        0.001250902958967       -0.001250903110100
         12.820086930476501       -0.000000000149971       -0.012755103985705        0.012755103835734
         12.941031146801750       -0.000000000142062        0.001092822584956       -0.001092822727018
         13.061975363127001       -0.000000000135026        0.013007655943712       -0.013007656078737
         13.182919579452250       -0.000000000104213       -0.004115609356453        0.004115609252240
         13.303863795777501       -0.000000000108255       -0.012045653595979        0.012045653487724
         13.424808012102751       -0.000000000049504        0.006465502371638       -0.006465502421142
         13.545752228428000       -0.000000000072085        0.010979441822598       -0.010979441894684
         13.666696444753251        0.000000000019200       -0.008964847038866        0.008964847058067
         13.787640661078500       -0.000000000018808       -0.009053686322073        0.009053686303265
         13.908584877403751        0.000000000086974        0.010811646506177       -0.010811646419204
         14.029529093729000        0.000000000035315        0.006897841775815       -0.006897841740499
         14.150473310054251        0.000000000137130       -0.012326862601156        0.012326862738286
         14.271417526379501        0.000000000101445       -0.004331201772214        0.004331201873659
         14.392361742704750        0.000000000176904        0.013253468265039       -0.013253468088135
         14.513305959030001        0.000000000155695        0.001568722449768       -0.001568722294073
         14.634250175355250        0.000000000180088       -0.013579856625543        0.013579856805632
         14.755194391680501        0.000000000200944        0.001227784359537       -0.001227784158593
         14.876138608005750        0.000000000176873        0.013361672651107       -0.013361672474235
         14.997082824331001        0.000000000220214       -0.004019400563559        0.004019400783772
         15.118027040656251        0.000000000143401       -0.012545765362379        0.012545765505780
         15.238971256981500        0.000000000214167        0.006642457435751       -0.006642457221584
         15.359915473306751        0.000000000115401        0.011164344314397       -0.011164344198996
         15.480859689632000        0.000000000181051       -0.008922295446650        0.008922295627701
         15.601803905957251        0.000000000075253       -0.009443694398739        0.009443694473992
         15.722748122282500        0.000000000131781        0.011042528775945       -0.011042528644164
         15.843692338607751        0.000000000049826        0.007050352985299       -0.007050352935473
         15.964636554933001        0.000000000077094       -0.012391994067484        0.012391994144578
         16.085580771258250        0.000000000025793       -0.004756435246936        0.004756435272729
         16.206524987583499        0.000000000034358        0.013749048742038       -0.013749048707680
         16.327469203908752        0.000000000016825        0.001656435103319       -0.001656435086494
         16.448413420234001        0.000000000015328       -0.013935860385826        0.013935860401155
         16.569357636559250        0.000000000015865        0.000885983397479       -0.000885983381615
         16.690301852884499        0.000000000025513        0.014296259609955       -0.014296259584441
         16.811246069209751        0.000000000023747       -0.004238083606669        0.004238083630416
         16.932190285535000        0.000000000066477       -0.013288703716640        0.013288703783117
         17.053134501860249        0.000000000044633        0.006731068016065       -0.006731067971431
         17.174078718185502        0.000000000122846        0.012475267559868       -0.012475267437022
         17.295022934510751        0.000000000067881       -0.009799285380624        0.009799285448505
         17.415967150836000        0.000000000185977       -0.010378673480403        0.010378673666380
         17.536911367161249        0.000000000107031        0.011895979911891       -0.011895979804860
         17.657855583486501        0.000000000232080        0.008387265967832       -0.008387265735752
         17.778799799811750        0.000000000141096       -0.014174362631830        0.014174362772927
         17.899744016136999        0.000000000254807       -0.005390926062849        0.005390926317655
         18.020688232462252        0.000000000185806        0.015439193495983       -0.015439193310177
         18.141632448787501        0.000000000243816        0.002477943243036       -0.002477942999220
         18.262576665112750        0.000000000210427       -0.016525991871774        0.016525992082201
         18.383520881437999        0.000000000202014        0.001110379914745       -0.001110379712731
         18.504465097763251        0.000000000231143        0.016521115174346       -0.016521114943203
         18.625409314088500        0.000000000145218       -0.004430160824386        0.004430160969604
         18.746353530413749        0.000000000215858       -0.016172775019535        0.016172775235393
         18.867297746739002        0.000000000071971        0.008131465444984       -0.008131465373013
         18.988241963064251        0.000000000183696        0.014620387971953       -0.014620387788258
         19.109186179389500        0.000000000018097       -0.011160233714518        0.011160233732615
         19.230130395714749        0.000000000122041       -0.012827041773219        0.012827041895260
         19.351074612040001       -0.000000000038014        0.014346990403122       -0.014346990441136
         19.472018828365250        0.000000000047866        0.009770235413251       -0.009770235365385
         19.592963044690499       -0.000000000062937       -0.016357613939837        0.016357613876901
         19.713907261015752       -0.000000000020622       -0.006812597702364        0.006812597681742
         19.834851477341001       -0.000000000085525        0.018371757119036       -0.018371757204560
         19.955795693666250       -0.000000000077030        0.002705717962800       -0.002705718039830
         20.076739909991499       -0.000000000093996       -0.018824717503801        0.018824717409805
         20.197684126316751       -0.000000000097410        0.000867691806634       -0.000867691904044
         20.318628342642000       -0.000000000097512        0.019165191744029       -0.019165191841541
         20.439572558967249       -0.000000000082260       -0.005222183413924        0.005222183331664
         20.560516775292502       -0.000000000096454       -0.017888998939470        0.017888998843016
         20.681460991617751       -0.000000000037888        0.008700752248560       -0.008700752286448
         20.802405207943000       -0.000000000085811        0.016408454444750       -0.016408454530560
         20.923349424268253        0.000000000033287       -0.012392360874881        0.012392360908168
         21.044293640593501       -0.000000000052912       -0.013636909734336        0.013636909681424
         21.165237856918750        0.000000000104271        0.015059506808126       -0.015059506703855
         21.286182073243999       -0.000000000008905        0.010637157442166       -0.010637157451071
         21.407126289569252        0.000000000163531       -0.017367577390703        0.017367577554234
         21.528070505894501        0.000000000069260       -0.006904739857485        0.006904739926744
         21.649014722219750        0.000000000206829        0.018672618603159       -0.018672618396331
         21.769958938545003        0.000000000147270        0.003048114130908       -0.003048113983638
         21.890903154870252        0.000000000211005       -0.019251959327766        0.019251959538771
         22.011847371195501        0.000000000234909        0.000977011685145       -0.000977011450236
         22.132791587520749        0.000000000209554        0.018935919699966       -0.018935919490412
         22.253735803846002        0.000000000297365       -0.004884956820342        0.004884957117707
         22.374680020171251        0.000000000175650       -0.017834271677942        0.017834271853592
         22.495624236496500        0.000000000330987        0.008565044261586       -0.008565043930599
         22.616568452821753        0.000000000155839        0.015946686791506       -0.015946686635667
         22.737512669147002        0.000000000323540       -0.011781890812885        0.011781891136425
         22.858456885472251        0.000000000123170       -0.013511886738349        0.013511886861519
         22.979401101797500        0.000000000279953        0.014625067578401       -0.014625067298448
         23.100345318122752        0.000000000111679        0.010336505057119       -0.010336504945440
