#           time (fs)    |     mu_x (e.angstrom)   |     mu_y (e.angstrom)   |     mu_z (e.angstrom)   |
        0.000000000000000       -0.000000000000000       -0.000000000000000        0.000000000000000
        0.002418884326505        0.000000005790201        0.000000008233267        0.000076570387506
        0.004837768653010        0.000000132589568        0.000000188534219        0.000876637151854
        0.007256652979515        0.000000380181377        0.000000540594846        0.001675649792017
        0.009675537306020        0.000000963952988        0.000001370682349        0.003186270584201
        0.012094421632525        0.000001775474880        0.000002524617546        0.004694663077922
        0.014513305959030        0.000003127525122        0.000004447148957        0.006891003998987
        0.016932190285535        0.000004810176648        0.000006839775155        0.009083828359459
        0.019351074612040        0.000007219968274        0.000010266341956        0.011929551358572
        0.021769958938545        0.000010057324259        0.000014300873146        0.014770374566539
        0.024188843265050        0.000013784212185        0.000019600240000        0.018218226373254
        0.026607727591555        0.000018028062087        0.000025634670888        0.021659722428355
        0.029026611918060        0.000023293727787        0.000033122001410        0.025652305324580
        0.031445496244565        0.000029156643200        0.000041458518994        0.029637028424947
        0.033864380571070        0.000036138406801        0.000051385842760        0.034107739428241
        0.036283264897575        0.000043787213073        0.000062261516957        0.038569064755464
        0.038702149224080        0.000052612381792        0.000074809664426        0.043443186900064
        0.041121033550585        0.000062162688795        0.000088388639883        0.048306402658194
        0.043539917877090        0.000072904076467        0.000103660839213        0.053502329550593
        0.045958802203595        0.000084415999332        0.000120028217228        0.058685861454276
        0.048377686530100        0.000097088725162        0.000138045510231        0.064116434182346
        0.050796570856605        0.000110563899021        0.000157203072663        0.069533181541115
        0.053215455183110        0.000125123545107        0.000177901667336        0.075107115348597
        0.055634339509615        0.000140503509274        0.000199765554395        0.080665876266391
        0.058053223836120        0.000156845686588        0.000222996189486        0.086289253171550
        0.060472108162625        0.000174011683873        0.000247396601282        0.091896215173281
        0.062890992489130        0.000191973026035        0.000272925955139        0.097474017903008
        0.065309876815635        0.000210747232675        0.000299608903681        0.103034289503529
        0.067728761142140        0.000230107806516        0.000327123036005        0.108471951714872
        0.070147645468645        0.000250255978152        0.000355754130851        0.113891110043260
        0.072566529795150        0.000270743070450        0.000384863902795        0.119096057791199
        0.074985414121655        0.000291978560166        0.000415034110478        0.124281687354935
        0.077404298448160        0.000313271771404        0.000445282486479        0.129164847114750
        0.079823182774665        0.000335260847590        0.000476515761992        0.134028045113813
        0.082242067101170        0.000356998396663        0.000507386856591        0.138505294356312
        0.084660951427675        0.000379366761752        0.000539149505227        0.142962118618147
        0.087079835754180        0.000401152880556        0.000570079200473        0.146955655946726
        0.089498720080685        0.000423493266853        0.000601790790883        0.150928492533942
        0.091917604407190        0.000444906540956        0.000632178715474        0.154368105707493
        0.094336488733695        0.000466787237240        0.000663224330565        0.157786934538023
        0.096755373060200        0.000487389728672        0.000692446961168        0.160611146308834
        0.099174257386705        0.000508363871205        0.000722190543036        0.163414684711951
        0.101593141713210        0.000527710842100        0.000749615161854        0.165571758289616
        0.104012026039715        0.000547326286474        0.000777413680901        0.167708464288723
        0.106430910366220        0.000564976328064        0.000802412902070        0.169157252385002
        0.108849794692725        0.000582785904243        0.000827631059351        0.170586171635376
        0.111268679019230        0.000598311264815        0.000849597620612        0.171296795432636
        0.113687563345735        0.000613883206987        0.000871622776814        0.171988238130326
        0.116106447672240        0.000626880105111        0.000889984282521        0.171942585124040
        0.118525331998745        0.000639808440791        0.000908241297129        0.171878621815577
        0.120944216325250        0.000649907146524        0.000922474594397        0.171070654278944
        0.123363100651755        0.000659821826032        0.000936440254970        0.170245422307948
        0.125781984978260        0.000666696293119        0.000946085126734        0.168681291076415
        0.128200869304765        0.000673272841082        0.000955301850878        0.167101106362616
        0.130619753631270        0.000676649677470        0.000959973718057        0.164799067693571
        0.133038637957775        0.000679618152651        0.000964062219784        0.162482339605905
        0.135457522284280        0.000679284724963        0.000963463559404        0.159472475984406
        0.137876406610785        0.000678437783377        0.000962134186965        0.156449426191617
        0.140295290937290        0.000674249263328        0.000956064393887        0.152773175073588
        0.142714175263795        0.000669449132381        0.000949126867694        0.149085364379452
        0.145133059590300        0.000661334309355        0.000937490314176        0.144794861935338
        0.147551943916805        0.000652518497443        0.000924861620672        0.140494532177588
        0.149970828243310        0.000640484201507        0.000907673699863        0.135651782069481
        0.152389712569815        0.000627669788023        0.000889383929755        0.130801023130234
        0.154808596896320        0.000611803791175        0.000866774905878        0.125476903175024
        0.157227481222825        0.000595090166012        0.000842970862435        0.120146657968705
        0.159646365549330        0.000575562456335        0.000815187391199        0.114419780165346
        0.162065249875835        0.000555132405368        0.000786133835667        0.108688703095741
        0.164484134202340        0.000532194758499        0.000753538062675        0.102644144888230
        0.166903018528845        0.000508313821908        0.000719616508702        0.096597331663200
        0.169321902855350        0.000482297626519        0.000682682700540        0.090325258440749
        0.171740787181855        0.000455311689749        0.000644387716924        0.084052867270208
        0.174159671508360        0.000426624018074        0.000603696428479        0.077647067945302
        0.176578555834865        0.000396955130201        0.000561629458971        0.071242853998639
        0.178997440161370        0.000366073080489        0.000517859290461        0.064799213029283
        0.181416324487875        0.000334213531225        0.000472720049804        0.058358999568387
        0.183835208814380        0.000301676905742        0.000426637097271        0.051973929981940
        0.186254093140885        0.000268181629682        0.000379212653358        0.045594040792685
        0.188672977467390        0.000234584048825        0.000331657805930        0.039362903605266
        0.191091861793895        0.000200061462941        0.000282809507969        0.033138582201147
        0.193510746120400        0.000166040052399        0.000234683793271        0.027154118088713
        0.195929630446905        0.000131141469581        0.000185332254207        0.021177959632218
        0.198348514773410        0.000097365292408        0.000137580478758        0.015528758776928
        0.200767399099915        0.000062773088980        0.000088688865845        0.009889180734344
        0.203186283426420        0.000029930527025        0.000042281839181        0.004658216423510
        0.205605167752925       -0.000003654725199       -0.000005162231484       -0.000562006384563
        0.208024052079430       -0.000034869406725       -0.000049246562958       -0.005298755606506
        0.210442936405935       -0.000066742604186       -0.000094250195072       -0.010023866691563
        0.212861820732440       -0.000095643250202       -0.000135046346943       -0.014198682736689
        0.215280705058945       -0.000125108952833       -0.000176631231813       -0.018361206746304
        0.217699589385450       -0.000151031791140       -0.000213206130759       -0.021915763645593
        0.220118473711955       -0.000177418665546       -0.000250428726059       -0.025457634368675
        0.222537358038460       -0.000199736566045       -0.000281901609408       -0.028343976068686
        0.224956242364965       -0.000222411779916       -0.000313873224247       -0.031217509873069
        0.227375126691470       -0.000240548200039       -0.000339435081188       -0.033398856870747
        0.229794011017975       -0.000258931464701       -0.000365341454905       -0.035567554370139
        0.232212895344480       -0.000272373780350       -0.000384273600360       -0.037018924786875
        0.234631779670985       -0.000285950739121       -0.000403393563543       -0.038458086476748
        0.237050663997490       -0.000294262667191       -0.000415084944608       -0.039166720395534
        0.239469548323995       -0.000302597335188       -0.000426807761006       -0.039863865258485
        0.241888432650500       -0.000305430167702       -0.000430770613821       -0.039829444627885
        0.244307316977005       -0.000308176143876       -0.000434611621137       -0.039784524215545
        0.246726201303510       -0.000305278534524       -0.000430495122747       -0.039019184280261
        0.249145085630015       -0.000302188728606       -0.000426109318180       -0.038244588446865
        0.251563969956520       -0.000293414799527       -0.000413710912771       -0.036772720407260
        0.253982854283025       -0.000284349444469       -0.000400904165108       -0.035293074607937
        0.256401738609530       -0.000269665013599       -0.000380178286030       -0.033150922946422
        0.258820622936035       -0.000254597767307       -0.000358915899028       -0.031002680727936
        0.261239507262540       -0.000234084533575       -0.000329979856252       -0.028237742276481
        0.263658391589045       -0.000213106511141       -0.000300392256903       -0.025468580189230
        0.266077275915550       -0.000186964075144       -0.000263529112672       -0.022138815463910
        0.268496160242055       -0.000160285693314       -0.000225914491543       -0.018806841029711
        0.270915044568560       -0.000128831333723       -0.000181572803769       -0.014979711550746
        0.273333928895065       -0.000096781891955       -0.000136396591614       -0.011152498061766
        0.275752813221570       -0.000060448061634       -0.000085186963658       -0.006903846251085
        0.278171697548075       -0.000023473027640       -0.000033078087662       -0.002657310996841
        0.280590581874580        0.000017197422607        0.000024233476607        0.001929898243816
        0.283009466201085        0.000058541411360        0.000082489553370        0.006512753260274
        0.285428350527590        0.000102902230418        0.000144991430192        0.011349808066310
        0.287847234854095        0.000147954595024        0.000208462822402        0.016180271777575
        0.290266119180600        0.000195265257840        0.000275110566161        0.021174182989444
        0.292685003507105        0.000243270840611        0.000342732110169        0.026159304436885
        0.295103887833610        0.000292707671226        0.000412364093321        0.031214345156453
        0.297522772160115        0.000342828098026        0.000482953341198        0.036258472036569
        0.299941656486620        0.000393497220232        0.000554309005910        0.041277761883532
        0.302360540813125        0.000444824091042        0.000626584834739        0.046284123385306
        0.304779425139630        0.000495776003638        0.000698325274712        0.051171231718070
        0.307198309466135        0.000547345705969        0.000770928824648        0.056043540003990
        0.309617193792640        0.000597591248739        0.000841659368194        0.060704082186577
        0.312036078119145        0.000648401157521        0.000913176975149        0.065348126660339
        0.314454962445650        0.000696928606601        0.000981471397725        0.069691327625886
        0.316873846772155        0.000745954406529        0.001050459143320        0.074016536267742
        0.319292731098660        0.000791747414009        0.001114885100062        0.077956736141699
        0.321711615425165        0.000837961256226        0.001179894563583        0.081877678674598
        0.324130499751670        0.000880017328901        0.001239039800637        0.085335756072949
        0.326549384078175        0.000922406513635        0.001298644565761        0.088773564549814
        0.328968268404680        0.000959755710055        0.001351143444078        0.091678254359456
        0.331387152731185        0.000997341570835        0.001403965888004        0.094561937937794
        0.333806037057690        0.001029065084656        0.001448525735571        0.096851021919050
        0.336224921384195        0.001060921738371        0.001493263610703        0.099118654117422
        0.338643805710700        0.001086170029751        0.001528690409641        0.100740004542620
        0.341062690037205        0.001111442650555        0.001564142718858        0.102339763155077
        0.343481574363710        0.001129452786492        0.001589365633097        0.103252221907587
        0.345900458690215        0.001147375060829        0.001614457299660        0.104143263981415
        0.348319343016720        0.001157486930180        0.001628551557589        0.104317342073650
        0.350738227343225        0.001167397355371        0.001642356400369        0.104470498917348
        0.353157111669730        0.001169068435189        0.001644564065237        0.103888884220648
        0.355575995996235        0.001170425135380        0.001646325609459        0.103287164275945
        0.357994880322740        0.001163243502268        0.001636073798500        0.101945028353978
        0.360413764649245        0.001155637253281        0.001625223481679        0.100583918897772
        0.362832648975750        0.001139332556801        0.001602139632704        0.098489017149512
        0.365251533302255        0.001122497735491        0.001578312004558        0.096376579136002
        0.367670417628760        0.001096949880059        0.001542235835605        0.093549141924102
        0.370089301955265        0.001070773084024        0.001505280398852        0.090705895770188
        0.372508186281770        0.001036018400902        0.001456272261607        0.087178311765940
        0.374927070608275        0.001000544520436        0.001406261656869        0.083636915451768
        0.377345954934780        0.000956779251883        0.001344607046781        0.079453211993083
        0.379764839261285        0.000912214817373        0.001281841348102        0.075257936417650
        0.382183723587790        0.000859795780051        0.001208051402274        0.070473065173882
        0.384602607914295        0.000806509453881        0.001133058358729        0.065679075195217
        0.387021492240800        0.000745951797493        0.001047866245143        0.060358014786524
        0.389440376567305        0.000684471929170        0.000961397377149        0.055030467713236
        0.391859260893810        0.000616443958085        0.000865750554161        0.049247158072700
        0.394278145220315        0.000547453173774        0.000768773088986        0.043460134491270
        0.396697029546820        0.000472768253165        0.000663821490717        0.037296260624166
        0.399115913873325        0.000397095105237        0.000557506198625        0.031131545286588
        0.401534798199830        0.000316700727990        0.000444586478372        0.024675190622597
        0.403953682526335        0.000235308485475        0.000330291547590        0.018220923634610
        0.406372566852840        0.000150272630850        0.000210907586287        0.011565115346549
        0.408791451179345        0.000064245346916        0.000090158750014        0.004914336051713
        0.411210335505850       -0.000024259684366       -0.000034041291225       -0.001844493499694
        0.413629219832355       -0.000113733637662       -0.000159574090460       -0.008595385776554
        0.416048104158860       -0.000204449675580       -0.000286823826776       -0.015358995936563
        0.418466988485365       -0.000296096363009       -0.000415352882076       -0.022111838759113
        0.420885872811870       -0.000387699822633       -0.000543796460657       -0.028781809321585
        0.423304757138375       -0.000480180500770       -0.000673445438933       -0.035438305149110
        0.425723641464880       -0.000571304509207       -0.000801168528038       -0.041917669929794
        0.428142525791385       -0.000663238044662       -0.000930003828745       -0.048381018259737
        0.430561410117890       -0.000752495871150       -0.001055066324568       -0.054575876382122
        0.432980294444395       -0.000842482446289       -0.001181130137030       -0.060752382925930
        0.435399178770900       -0.000928491832201       -0.001301600031800       -0.066573461029059
        0.437818063097405       -0.001015137528997       -0.001422944528075       -0.072374097146850
        0.440236947423910       -0.001096545487511       -0.001536932350631       -0.077738236476644
        0.442655831750415       -0.001178487313517       -0.001651654418897       -0.083080122851141
        0.445074716076920       -0.001253994949381       -0.001757347636598       -0.087911666368506
        0.447493600403425       -0.001329925851086       -0.001863623538107       -0.092719456077462
        0.449912484729930       -0.001398312739950       -0.001959320297156       -0.096951512298861
        0.452331369056435       -0.001467006138685       -0.002055439618643       -0.101158650039726
        0.454750253382940       -0.001527153803563       -0.002139581199297       -0.104734212304540
        0.457169137709445       -0.001587487188179       -0.002223979472954       -0.108284048520729
        0.459588022035950       -0.001638401218055       -0.002295180847109       -0.111156950732787
        0.462006906362455       -0.001689378337201       -0.002366470222262       -0.114003691764248
        0.464425790688960       -0.001730208709752       -0.002423548123682       -0.116139384351220
        0.466844675015465       -0.001770979924798       -0.002480545498256       -0.118248862449630
        0.469263559341970       -0.001801039121597       -0.002522543450201       -0.119624995282057
        0.471682443668475       -0.001830919508812       -0.002564295505746       -0.120975245348553
